timestamp,x,y,z,w
278928947952,-0.600647,0.127197,-0.115662,0.780762
278928948780,-0.600586,0.12738,-0.115662,0.780823
278928979106,-0.600586,0.127319,-0.115662,0.780823
278928992968,-0.600403,0.12738,-0.115784,0.780945
278929009067,-0.60022,0.12738,-0.115967,0.781067
278929030926,-0.600281,0.12738,-0.115967,0.781006
278929045996,-0.600281,0.127441,-0.116211,0.780945
278929068504,-0.600281,0.127502,-0.116394,0.780945
278929114970,-0.600281,0.127502,-0.116394,0.780945
278929116889,-0.600281,0.127502,-0.116455,0.780945
278929153022,-0.600281,0.127502,-0.116455,0.780945
278929157237,-0.600281,0.127441,-0.116455,0.780945
278929167561,-0.600281,0.127441,-0.116455,0.780945
278929192841,-0.600281,0.127441,-0.116455,0.780945
278929222539,-0.60022,0.127441,-0.116455,0.780945
278929226281,-0.60022,0.127441,-0.116455,0.780945
278929272540,-0.60022,0.127441,-0.116455,0.781006
278929275125,-0.60022,0.127441,-0.116455,0.781006
278929324965,-0.60022,0.127441,-0.116455,0.781006
278929325544,-0.60022,0.12738,-0.116455,0.781006
278929348804,-0.60022,0.12738,-0.116455,0.781006
278929354178,-0.60022,0.127258,-0.116638,0.781006
278929377857,-0.60022,0.127258,-0.116638,0.780945
278929409010,-0.60022,0.127258,-0.116638,0.780945
278929414270,-0.60022,0.127258,-0.116638,0.780945
278929429247,-0.60022,0.127258,-0.116638,0.781006
278929468036,-0.60022,0.127258,-0.116638,0.781006
278929472786,-0.60022,0.127258,-0.116638,0.781006
278929498099,-0.60022,0.127258,-0.116638,0.781006
278929512375,-0.60022,0.127258,-0.116638,0.781006
278929534216,-0.60022,0.127258,-0.116638,0.781006
278929549256,-0.60022,0.127258,-0.116638,0.781006
278929586617,-0.60022,0.127258,-0.116638,0.781006
278929589125,-0.600037,0.127319,-0.116577,0.781128
278929615186,-0.600037,0.127625,-0.116516,0.781128
278929630396,-0.600159,0.127991,-0.116455,0.780945
278929654943,-0.600403,0.128723,-0.116882,0.780579
278929669249,-0.600525,0.129395,-0.117249,0.780273
278929692831,-0.600098,0.129883,-0.117737,0.780457
278929706052,-0.599365,0.130188,-0.118042,0.780945
278929743532,-0.598694,0.13031,-0.118164,0.781372
278929750734,-0.598572,0.130371,-0.118835,0.781372
278929789850,-0.59906,0.13031,-0.11969,0.780884
278929792283,-0.599854,0.130249,-0.120361,0.780212
278929828969,-0.600891,0.130371,-0.120605,0.779297
278929850447,-0.602356,0.130066,-0.120667,0.778259
278929879077,-0.603638,0.130005,-0.120239,0.777344
278929903860,-0.605042,0.130005,-0.120056,0.776306
278929910603,-0.607178,0.1297,-0.120239,0.774658
278929912237,-0.609558,0.129456,-0.121521,0.772583
278929947228,-0.611572,0.129639,-0.122803,0.770752
278929949721,-0.611023,0.129028,-0.12262,0.771362
278929971327,-0.609131,0.127502,-0.122192,0.773132
278929997893,-0.60675,0.126282,-0.121582,0.775269
278930023815,-0.60437,0.125793,-0.121216,0.777283
278930029951,-0.60199,0.124939,-0.121277,0.779297
278930065978,-0.601624,0.124817,-0.121826,0.779541
278930080957,-0.601196,0.125061,-0.122437,0.779724
278930087777,-0.599609,0.125244,-0.122498,0.780884
278930117752,-0.598572,0.125305,-0.122498,0.781677
278930142347,-0.598022,0.125671,-0.122559,0.782043
278930147158,-0.597534,0.125732,-0.123108,0.782288
278930179171,-0.59613,0.125305,-0.123535,0.783325
278930186109,-0.594543,0.124695,-0.124207,0.784546
278930207300,-0.593079,0.124451,-0.124268,0.785706
278930237936,-0.592285,0.124207,-0.124451,0.786316
278930262520,-0.591675,0.124268,-0.12439,0.786743
278930275297,-0.591003,0.12439,-0.12439,0.787231
278930299254,-0.590881,0.124817,-0.125,0.78717
278930314221,-0.590576,0.125366,-0.125305,0.787231
278930336842,-0.588867,0.125732,-0.125671,0.788391
278930359852,-0.587097,0.125793,-0.12561,0.789734
278930380348,-0.583984,0.125854,-0.123291,0.792419
278930396661,-0.578674,0.124329,-0.119385,0.797119
278930419741,-0.572998,0.122192,-0.117859,0.801758
278930434215,-0.572998,0.123474,-0.119263,0.801392
278930457171,-0.574951,0.127625,-0.120178,0.799133
278930488023,-0.575745,0.130676,-0.121155,0.797974
278930503305,-0.575562,0.132446,-0.122559,0.797607
278930516756,-0.574707,0.133362,-0.123901,0.797852
278930539821,-0.574585,0.134521,-0.124268,0.797729
278930554235,-0.575928,0.134766,-0.124512,0.796631
278930576663,-0.577454,0.135132,-0.124146,0.795532
278930591663,-0.57959,0.135437,-0.12323,0.794067
278930613240,-0.581909,0.135437,-0.122253,0.792542
278930636690,-0.584106,0.13501,-0.121216,0.791138
278930659637,-0.585388,0.134216,-0.120544,0.790405
278930674220,-0.585999,0.133484,-0.120117,0.790161
278930697183,-0.586182,0.132996,-0.119263,0.790222
278930711719,-0.586304,0.132202,-0.118347,0.790405
278930734210,-0.58667,0.131348,-0.117371,0.790405
278930794817,-0.586975,0.130554,-0.116333,0.790466
278930797305,-0.586609,0.129578,-0.115845,0.790955
278930818863,-0.58667,0.129517,-0.115112,0.791077
278930832270,-0.586731,0.129211,-0.114197,0.791199
278930834726,-0.586792,0.12854,-0.113464,0.791382
278930855687,-0.587402,0.127991,-0.112915,0.791077
278930884175,-0.588074,0.127563,-0.112488,0.79071
278930898209,-0.588501,0.127136,-0.112305,0.790466
278930916392,-0.588745,0.126831,-0.112488,0.790344
278930936701,-0.588989,0.12677,-0.112671,0.790161
278930952161,-0.589233,0.126648,-0.112915,0.789917
278930974630,-0.589661,0.126587,-0.112976,0.789612
278931012994,-0.59021,0.126526,-0.113037,0.789185
278931017692,-0.59082,0.126404,-0.112915,0.788818
278931040263,-0.591187,0.126282,-0.112976,0.788513
278931056719,-0.591492,0.126282,-0.113037,0.78833
278931072174,-0.591614,0.126221,-0.112976,0.788208
278931109912,-0.591919,0.12616,-0.112976,0.788025
278931112161,-0.592346,0.12616,-0.113098,0.787659
278931132632,-0.592712,0.12616,-0.11322,0.787415
278931177179,-0.592896,0.126038,-0.113403,0.787231
278931179492,-0.593079,0.125916,-0.113647,0.787048
278931192659,-0.593262,0.125854,-0.113892,0.786926
278931214279,-0.593384,0.125916,-0.114136,0.786804
278931229068,-0.593445,0.125977,-0.114258,0.786682
278931252510,-0.593567,0.125977,-0.114502,0.78656
278931290464,-0.593628,0.125916,-0.114685,0.786499
278931295695,-0.593628,0.125732,-0.114807,0.786499
278931320598,-0.593689,0.125549,-0.11499,0.786499
278931334694,-0.593689,0.125549,-0.11499,0.786499
278931349074,-0.593689,0.125549,-0.11499,0.786499
278931371449,-0.593872,0.125427,-0.115173,0.786316
278931410558,-0.593872,0.125427,-0.115173,0.786316
278931423005,-0.593872,0.125427,-0.115234,0.786316
278931439217,-0.594055,0.125122,-0.115417,0.786194
278931469168,-0.594177,0.124695,-0.115662,0.786133
278931471562,-0.594238,0.124451,-0.115845,0.786072
278931506709,-0.594238,0.124451,-0.115845,0.786072
278931530580,-0.594238,0.124451,-0.115845,0.786072
278931542500,-0.594238,0.124512,-0.115845,0.786072
278931560814,-0.594238,0.124512,-0.115845,0.786072
278931574180,-0.59436,0.124207,-0.115845,0.786072
278931597155,-0.594482,0.124023,-0.115723,0.786011
278931611610,-0.594482,0.124023,-0.115723,0.786011
278931650598,-0.594482,0.124023,-0.115723,0.786011
278931655243,-0.594482,0.124023,-0.115723,0.786011
278931686705,-0.594543,0.124023,-0.115723,0.78595
278931694759,-0.594543,0.124023,-0.115723,0.78595
278931718192,-0.594543,0.124023,-0.115723,0.78595
278931747772,-0.594788,0.124023,-0.115662,0.785767
278931754194,-0.594788,0.124023,-0.115662,0.785767
278931777181,-0.594849,0.124207,-0.11554,0.785706
278931799563,-0.594788,0.124329,-0.11554,0.785767
278931814202,-0.594849,0.124268,-0.11554,0.785706
278931836675,-0.594849,0.124268,-0.11554,0.785767
278931850981,-0.594849,0.124268,-0.11554,0.785767
278931874151,-0.594849,0.124268,-0.11554,0.785706
278931902697,-0.594849,0.124268,-0.11554,0.785706
278931926666,-0.594849,0.124268,-0.11554,0.785706
278931942406,-0.594849,0.124268,-0.11554,0.785706
278931956788,-0.594971,0.124207,-0.11554,0.785583
278931971162,-0.595154,0.124268,-0.115479,0.785461
278931995837,-0.595154,0.124268,-0.115479,0.785461
278932031598,-0.595154,0.124268,-0.115479,0.785461
278932034002,-0.595154,0.124268,-0.115479,0.785461
278932084882,-0.595215,0.124268,-0.115479,0.785461
278932087175,-0.595215,0.124268,-0.115479,0.785461
278932100702,-0.595215,0.124268,-0.11554,0.785461
278932120259,-0.595215,0.124268,-0.115479,0.785461
278932152302,-0.595215,0.124268,-0.11554,0.785461
278932154723,-0.595215,0.124268,-0.11554,0.785461
278932181729,-0.595215,0.124207,-0.11554,0.785461
278932204210,-0.595215,0.124268,-0.11554,0.785461
278932210974,-0.595215,0.124268,-0.11554,0.785461
278932249235,-0.595215,0.124268,-0.11554,0.785461
278932273141,-0.595215,0.124268,-0.11554,0.785461
278932285285,-0.595215,0.124207,-0.11554,0.785461
278932301705,-0.595215,0.124207,-0.11554,0.785461
278932324311,-0.595215,0.124207,-0.11554,0.785461
278932331021,-0.595215,0.124207,-0.11554,0.785461
278932362160,-0.595215,0.124207,-0.11554,0.785461
278932391639,-0.595215,0.124207,-0.11554,0.785461
278932393987,-0.595215,0.124207,-0.11554,0.785461
278932429573,-0.595215,0.124207,-0.11554,0.785461
278932445685,-0.595215,0.124207,-0.11554,0.785461
278932459165,-0.595215,0.124207,-0.11554,0.785461
278932481807,-0.595215,0.124207,-0.11554,0.785461
278932497431,-0.595215,0.124207,-0.11554,0.785461
278932519421,-0.595215,0.124207,-0.11554,0.785461
278932549218,-0.595215,0.124207,-0.11554,0.785461
278932564926,-0.595215,0.124207,-0.11554,0.785461
278932579233,-0.595215,0.124207,-0.11554,0.785461
278932601660,-0.595215,0.124207,-0.11554,0.785461
278932631449,-0.595215,0.124207,-0.11554,0.785461
278932645658,-0.595215,0.124207,-0.11554,0.785461
278932669857,-0.595215,0.124207,-0.11554,0.785461
278932684256,-0.595215,0.124207,-0.11554,0.785461
278932737423,-0.595215,0.124207,-0.11554,0.785461
278932739655,-0.595215,0.124207,-0.11554,0.7854
278932761482,-0.595276,0.124207,-0.11554,0.7854
278932765246,-0.595276,0.124207,-0.11554,0.7854
278932798025,-0.595276,0.124207,-0.11554,0.7854
278932802741,-0.595215,0.124512,-0.115479,0.785461
278932826740,-0.595215,0.124512,-0.115479,0.785461
278932858100,-0.595215,0.124512,-0.115479,0.7854
278932862771,-0.595215,0.124512,-0.115479,0.7854
278932879663,-0.595215,0.124512,-0.115479,0.7854
278932895107,-0.595215,0.124512,-0.115479,0.7854
278932924103,-0.595215,0.124451,-0.115479,0.7854
278932947063,-0.595215,0.124451,-0.115479,0.7854
278932963301,-0.595215,0.124451,-0.115479,0.7854
278932984632,-0.595215,0.124451,-0.115479,0.7854
278932999872,-0.595215,0.124451,-0.115479,0.7854
278933036615,-0.595215,0.124451,-0.115479,0.7854
278933039004,-0.595215,0.124451,-0.115479,0.7854
278933075563,-0.595215,0.124451,-0.115479,0.785461
278933080282,-0.595215,0.124512,-0.115479,0.7854
278933120555,-0.595215,0.124512,-0.115479,0.7854
278933142239,-0.595215,0.124512,-0.115479,0.7854
278933144803,-0.595215,0.124512,-0.115479,0.7854
278933157636,-0.595215,0.124512,-0.115479,0.7854
278933195526,-0.595215,0.124512,-0.115479,0.7854
278933207742,-0.595215,0.124512,-0.115417,0.7854
278933224233,-0.595215,0.124512,-0.115417,0.7854
278933239726,-0.595215,0.124512,-0.115417,0.7854
278933262187,-0.595215,0.124512,-0.115417,0.7854
278933292119,-0.595215,0.124512,-0.115417,0.7854
278933315514,-0.595215,0.124512,-0.115417,0.7854
278933328473,-0.595215,0.124512,-0.115417,0.7854
278933344884,-0.595215,0.124512,-0.115417,0.7854
278933358965,-0.595215,0.124512,-0.115417,0.7854
278933383786,-0.595276,0.124512,-0.115479,0.7854
278933397565,-0.595215,0.124512,-0.115479,0.7854
278933421301,-0.595276,0.124512,-0.115479,0.7854
278933449654,-0.595215,0.124512,-0.115479,0.7854
278933471557,-0.595215,0.124512,-0.115479,0.7854
278933488824,-0.595215,0.124512,-0.115479,0.7854
278933503170,-0.595215,0.124512,-0.115417,0.7854
278933516549,-0.595215,0.124512,-0.115417,0.7854
278933540664,-0.595215,0.124512,-0.115417,0.7854
278933553983,-0.595215,0.124512,-0.115417,0.7854
278933592342,-0.595215,0.124512,-0.115417,0.7854
278933605354,-0.595215,0.124512,-0.115417,0.7854
278933621845,-0.595215,0.124512,-0.115417,0.7854
278933636061,-0.595276,0.124512,-0.115417,0.7854
278933661323,-0.595276,0.124512,-0.115417,0.7854
278933688112,-0.595276,0.124512,-0.115417,0.7854
278933697658,-0.595276,0.124512,-0.115417,0.7854
278933728349,-0.595276,0.124573,-0.115417,0.7854
278933749168,-0.595276,0.124573,-0.115417,0.7854
278933762787,-0.595276,0.124573,-0.115417,0.7854
278933779620,-0.595276,0.124573,-0.115417,0.7854
278933816778,-0.595276,0.124573,-0.115417,0.7854
278933819093,-0.595276,0.124573,-0.115417,0.785339
278933846811,-0.595276,0.124573,-0.115417,0.785339
278933869201,-0.595276,0.124573,-0.115417,0.785339
278933884408,-0.595276,0.124573,-0.115417,0.785339
278933899059,-0.595337,0.124573,-0.115417,0.785339
278933921302,-0.595337,0.124573,-0.115417,0.785339
278933938153,-0.595337,0.124573,-0.115417,0.785339
278933966826,-0.595337,0.124573,-0.115417,0.785339
278934004811,-0.595337,0.124634,-0.115417,0.785339
278934007250,-0.595337,0.124634,-0.115356,0.785339
278934028129,-0.595337,0.124634,-0.115356,0.785339
278934040616,-0.595337,0.124634,-0.115356,0.785278
278934057426,-0.595398,0.124634,-0.115356,0.785278
278934093345,-0.595398,0.124634,-0.115356,0.785278
278934107685,-0.595398,0.124634,-0.115356,0.785278
278934124116,-0.595398,0.124634,-0.115356,0.785278
278934163415,-0.595398,0.124634,-0.115356,0.785278
278934177189,-0.595398,0.124634,-0.115356,0.785278
278934179539,-0.595398,0.124634,-0.115356,0.785278
278934198521,-0.595398,0.124634,-0.115356,0.785217
278934243163,-0.595459,0.124634,-0.115356,0.785217
278934253757,-0.595459,0.124634,-0.115356,0.785217
278934266634,-0.595459,0.124634,-0.115356,0.785217
278934282098,-0.595459,0.124634,-0.115356,0.785217
278934304737,-0.595459,0.124634,-0.115356,0.785217
278934318890,-0.595459,0.124634,-0.115356,0.785217
278934350449,-0.595459,0.124634,-0.115356,0.785217
278934371594,-0.595459,0.124634,-0.115356,0.785217
278934387315,-0.595459,0.124634,-0.115356,0.785217
278934402170,-0.595459,0.124634,-0.115356,0.785217
278934439503,-0.595398,0.124634,-0.115356,0.785217
