timestamp,x,y,z
278635722497,0.3125,0,0.3125
278635745814,0.375,-0.125,-0.125
278635768941,0.625,-0.25,-0.3125
278635783247,0.5625,0.125,-0.25
278635805803,0.5625,0.25,-0.375
278635827182,0.4375,0.25,-0.75
278635843243,0.25,0.125,-0.9375
278635888165,0.125,0.375,-0.6875
278635896925,-0.0625,0.375,-0.5625
278635927020,-0.0625,0.1875,-0.6875
278635931923,-0.4375,0.4375,-0.25
278635949453,-0.75,0.8125,0.125
278635964951,-0.25,0.5625,0.125
278635986266,0.5625,0.1875,0.25
278636007760,0.75,0.0625,0.4375
278636044322,0.625,-0.1875,0.3125
278636054519,0.25,-0.3125,0
278636068072,-0.0625,-0.0625,0
278636090662,0.125,-0.125,0.125
278636105925,0.625,-0.0625,0
278636135611,0.6875,-0.0625,-0.1875
278636158117,0.0625,0.0625,-0.125
278636168307,-0.25,0.0625,-0.25
278636203091,-0.1875,0.0625,-0.1875
278636209939,0.1875,-0.125,-0.0625
278636226065,0.3125,-0.125,-0.1875
278636248550,-0.25,0,-0.0625
278636278129,0,0.0625,-0.3125
278636284914,0.375,0.0625,0.0625
278636323075,0.375,0.0625,-0.0625
278636329917,0.4375,0.25,0.1875
278636346091,0.1875,0.1875,0
278636367472,-0.125,0.125,0.125
278636398107,0,0,0.25
278636412472,0.25,0.0625,0.3125
278636435569,0.1875,0,0.125
278636449926,0,0.3125,-0.0625
278636464685,0.0625,0.375,-0.0625
278636487199,-0.0625,0.375,-0.25
278636518117,0.4375,0.1875,-0.625
278636532470,0.3125,0.125,-0.5625
278636557091,0.375,0.25,-0.5625
278636570429,0.375,0.0625,-0.375
278636600630,0.0625,0.125,-0.25
278636608196,-0.0625,0.25,-0.1875
278636638248,-0.125,-0.125,-0.25
278636652545,0.1875,0,-0.25
278636675798,0,0.125,-0.375
278636698892,0.1875,0.25,-0.3125
278636712509,0.4375,0.4375,0.1875
278636729014,0.5625,0.6875,0.3125
278636758672,0.5625,0.375,-0.1875
278636764917,0.1875,-0.125,-0.4375
278636797274,0,-0.125,-0.6875
278636810138,0.25,-0.25,-0.9375
278636832354,0.125,-0.0625,-0.8125
278636850435,-0.125,0.375,-0.6875
278636878403,-0.75,0.5,-0.75
278636885202,-0.5,0.3125,-0.875
278636915850,-0.3125,0.1875,-0.4375
278636930456,-0.4375,0.3125,-0.125
278636952590,-0.375,0.125,0
278636969171,-0.5,-0.125,0.3125
278636990223,-0.375,0.125,0.875
278637012540,-0.4375,0.375,1.125
278637036421,0,0.5625,0.9375
278637057685,0.375,0.375,1
278637073932,0.625,-0.0625,0.875
278637089730,0.8125,-0.25,0.9375
278637112245,0.6875,-0.5625,0.6875
278637127154,0.6875,-0.625,0.5
278637156482,0.875,-0.8125,0.3125
278637169976,0.625,-0.5625,-0.875
278637194392,0.375,-0.125,0.0625
278637209073,-0.8125,0.375,1.625
278637231558,-1,0.125,-0.1875
278637246598,-0.1875,1.5625,-0.5625
278637269027,1.8125,3,0.1875
278637290003,2.5,4.5,-3.125
278637314495,1.625,3.5,-1.3125
278637327574,1.25,2.3125,-2.25
278637351975,-5.625,0.75,-5.5
278637366480,-8.875,-1.9375,-5.9375
278637389001,-11,1.5,-2.125
278637411512,-28.5625,-4.8125,-4.25
278637434399,-38.125,-4.125,-1.375
278637448141,-43.3125,-7.5,3.6875
278637471409,-31.75,-6.5,0.1875
278637485820,-2.4375,4.875,-9.75
278637509037,22.1875,0.4375,-8.75
278637530127,17.0625,-4.8125,2.875
278637546353,1.4375,-0.6875,2.625
278637567536,10.1875,-3.25,8.5625
278637592073,23.5625,-2.375,10.6875
278637605962,17.625,2.0625,4
278637631817,1.4375,7.25,3.9375
278637649965,4.25,5.1875,4.5
278637666240,12.0625,-0.375,7.5625
278637687430,4.125,2.875,7.125
278637711499,0,5.0625,3.4375
278637725950,1,5.25,2.1875
278637750439,9.9375,2.625,1.875
278637770019,12.25,0.375,1.0625
278637786337,3.25,1.125,-0.125
278637809077,4.375,1.125,0.9375
278637830214,6.625,-0.6875,1.5625
278637845802,4.625,-1,1.75
278637870504,2.5625,-1.1875,2.125
278637906412,2.4375,-0.6875,1.0625
278637908807,4.625,2.5625,0.625
278637929584,2.5,5.125,-0.25
278637957515,3.625,1.625,-0.8125
278637965873,6.75,-1.625,2.9375
278637988924,19.125,-3.4375,2.0625
278638026361,21.75,-7.625,1.3125
278638028823,22.375,-6.0625,0.875
278638048991,19.25,-1.6875,-0.25
278638077553,10.8125,5.5625,0.1875
278638100200,-4.5,12.8125,-0.375
278638110006,-20.25,13.125,-0.4375
278638145652,-21.25,6.9375,0.75
278638152617,-14.625,4.625,-2.1875
278638183748,-7,3.6875,-2
278638190638,-2.5625,2.125,-2.0625
278638221421,2.25,1.625,1.25
278638244611,-1.5625,-1.25,4.5625
278638257701,-2.9375,-1.6875,3.9375
278638265804,-2.5,-4.6875,3.25
278638304537,1.125,-3.875,3.1875
278638317520,-1.8125,-2.3125,2.5625
278638341491,-6.5,-1.8125,2.25
278638357102,-5.1875,-2.8125,2.5
278638379071,-3.875,-2.9375,3.1875
278638392938,-3.375,-3.875,3.25
278638424633,-1.125,-3.875,2.5625
278638430063,0.1875,-3.9375,2.125
278638461435,0.125,-3.75,0.4375
278638476463,-0.8125,-3.875,-0.375
278638497542,0.6875,-3.6875,0
278638514609,1.625,-2,-0.5625
278638545043,-1.0625,-1,-1.1875
278638551928,-1.5,-0.125,-1.25
278638581482,-1.3125,0.4375,-1.5
278638620291,-1.6875,0,-1.5
278638641984,-2.375,-0.0625,-1.9375
278638644404,-2.625,0.1875,-2.3125
278638665321,-0.625,0.1875,-2.125
278638677517,0.875,0.5,-1.875
278638701416,0.625,0,-1.6875
278638714956,0.125,0.0625,-1.6875
278638737638,-0.375,0.5,-1.9375
278638753950,-0.375,0.4375,-1.625
278638776595,0.5625,0,-1.0625
278638792655,0.75,0.1875,-0.625
278638815332,1.25,0.25,-0.0625
278638828484,1.0625,0,-0.0625
278638859452,0.625,0.0625,-0.25
278638872604,-0.3125,0.1875,-0.25
278638896468,-0.4375,0.3125,-0.3125
278638912125,-0.3125,0.375,-0.125
278638934455,0.125,0.5,-0.125
278638950363,0.25,0.625,-0.4375
278638979465,-0.1875,0.6875,-0.625
278638992527,-0.3125,0.9375,-0.6875
278639016506,-0.5,0.9375,-0.5625
278639031449,-0.125,0.75,-0.375
278639054317,-0.25,1.1875,-0.375
278639069999,-0.875,1.25,0
278639092564,-0.4375,0.75,0.0625
278639112523,0,0.375,0
278639137008,-0.125,0.25,0.125
278639151477,0.0625,0.125,0.0625
278639173976,0.125,0.0625,0.125
278639195003,-0.1875,0.375,0.0625
278639211418,-0.0625,0.625,-0.125
278639233949,0.1875,0.375,-0.1875
278639256893,0.0625,0.4375,-0.3125
278639271427,-0.0625,0.25,-0.5625
278639294117,-0.125,0.125,-0.625
278639308299,-0.375,-0.0625,-0.625
278639331874,-0.3125,-0.125,-0.5625
278639354144,-0.125,-0.0625,-0.5625
278639376862,0.0625,0.1875,-0.375
278639391590,-0.0625,0.25,-0.5
278639414439,0.0625,0.125,-0.375
278639429046,0.0625,0.3125,-0.3125
278639452030,0,0.125,-0.0625
278639472700,-0.0625,0.0625,-0.25
278639488325,-0.4375,0.1875,-0.125
278639510810,-0.6875,0.3125,0.0625
278639535378,-0.375,0.125,0.0625
278639548284,-0.125,0.375,0.25
278639572395,-0.375,0.5,0.1875
278639592520,-0.3125,0.5,0.25
278639608308,-0.3125,0.375,0.25
278639632416,-0.3125,0.375,0.0625
278639653982,-0.25,0.1875,0
278639668271,0.5625,0,-0.0625
278639691272,2.3125,0.75,-0.1875
278639713927,2.25,1.3125,0.125
278639728747,-0.625,1.75,-0.5625
278639752455,-2.6875,2.875,-1.5
278639790847,-2.375,4.4375,-1.5
278639812809,-3.125,4,-2.0625
278639817511,-1.0625,1.3125,-3.25
278639850213,3.1875,2.6875,-0.5625
278639887034,3.875,4.0625,-0.25
278639889560,-0.4375,3.6875,-1.75
278639910276,-1.125,2,-1.5
278639931428,-6.9375,-0.25,-4.875
278639933687,-8.5,0.3125,-0.4375
278639969496,-13.25,2.4375,-1.0625
278639975403,-23,0.75,-0.625
278640005011,-18.0625,0.375,-1.1875
278640021863,-10.5,5.9375,-2.8125
278640042509,-9.9375,7.25,-0.9375
278640050855,-2.5625,5,-3.1875
278640090317,-8.625,3.6875,-5.125
278640095436,-9.5,-3.5625,-4.375
278640126485,5.625,-8.6875,-0.75
278640141812,7.5625,-11.3125,1.4375
278640149800,6.625,-7,-3.875
278640185009,4.125,-5.25,-1.625
278640208556,10.75,-5.9375,1.25
278640217056,17.3125,-5.875,4
278640246464,16.5,-5.125,8.375
278640261453,11.25,2.3125,2.375
278640283923,3,3.625,2.6875
278640307824,6.875,8.8125,4.125
278640321600,7.1875,6.75,1.5625
278640343920,9.0625,-0.4375,3.9375
278640366474,5.1875,-6.0625,5.375
278640374588,12.3125,-6.625,5.6875
278640403937,21.5,-5.8125,7.4375
278640426407,21.5625,-5.625,10.25
278640440139,8.875,-0.5,8.8125
278640463979,7,2.625,10.3125
278640478912,13.0625,4.875,7.8125
278640501483,7.8125,3.4375,4.625
278640524061,-0.5625,1.125,-1.6875
278640545383,13.125,-4.25,-2.1875
278640562993,21.1875,-8.25,-3.5625
278640583843,12.4375,-6,-5.125
278640622843,1.9375,-3.1875,-3.5625
278640644515,-3.0625,0.4375,-1.875
278640646996,-7,-0.1875,-0.75
278640659026,-0.6875,0.1875,-2.0625
278640681964,10.3125,1,-3
278640703947,14.4375,-0.4375,-3.5
278640718944,17.4375,-1.25,-5.5
278640741941,22.75,-6.4375,-1.5625
278640764801,27.0625,-13.25,5
278640780681,15.6875,-4.3125,4.3125
278640803320,-10.5,8.9375,-1.1875
278640818047,-19,13.5,-2
278640838924,-17.875,12.5,-4.8125
278640853352,-12.4375,12.3125,-4.125
278640876865,-8.8125,5.5625,-5.8125
278640898943,-3.75,3.25,-1.125
278640921884,-4.9375,-0.5,0.0625
278640936434,-9.5,-2.75,1.1875
278640958936,-10.6875,-0.9375,0.6875
278640982818,-9.5625,-5.375,0
278640996982,-6.875,-6.0625,-1.5
278641019995,-7.625,-7.5,-2.5
278641057614,-6.9375,-6.3125,-0.8125
278641081032,-4.375,-6.1875,-1.0625
278641095179,-1.0625,-6.875,-0.625
278641102897,0.5,-5.8125,0.8125
278641116942,1.4375,-5.1875,0.1875
278641137575,0.3125,-4.375,0.9375
278641154365,-4.625,-3.875,0.375
278641176440,-4.6875,-4.3125,0
278641198965,-4.125,-3.375,0.5625
278641213263,-2.3125,-4.1875,1.6875
278641236399,-0.625,-3,1.75
278641257592,-0.125,-2.25,1.4375
278641288013,-0.625,-0.5,1.125
278641297999,-1.125,0.9375,0.8125
278641319089,-0.625,0.75,0.75
278641333430,0.375,0.8125,0.75
278641356882,0.25,0.9375,0.5625
278641377594,-1.1875,1.0625,0.1875
278641393743,-2,-0.0625,-0.4375
278641415956,-2.4375,1.1875,-0.4375
278641437601,-1.8125,1.125,0.5625
278641453267,-1.125,0.1875,-0.125
278641476291,-1.5625,0.375,0
278641497659,-1.4375,0.375,0.5625
278641513767,-1.125,-0.25,0.125
278641535704,-0.375,-0.125,0
278641557637,-0.5,0.0625,0.25
278641573264,-0.25,0.375,-0.125
278641597221,-0.625,0.25,0.0625
278641619411,-0.625,-0.25,0.1875
278641633710,-0.1875,-0.5625,0.4375
278641655858,0,-0.5,0.75
278641686473,-0.125,-0.875,0.6875
278641693229,-1.0625,-0.5625,0.5625
278641715922,-1.375,-0.4375,0.1875
278641739114,-1.6875,-0.625,0.0625
278641753678,-1.625,-0.375,-0.125
278641775689,-1.4375,0.1875,-0.25
278641806447,-0.875,0.0625,0.0625
278641813387,-0.3125,-0.0625,-0.1875
278641843905,0.25,-0.3125,0.0625
278641858723,0.25,-0.375,0.0625
278641874885,-0.3125,-0.1875,0
278641895775,-0.625,-0.0625,0.375
278641918959,-0.875,0.0625,0.6875
278641933391,-0.25,0.4375,0.875
278641963920,0.625,0.125,0.75
278641986434,0.8125,-0.25,0.5625
278641993467,0,-0.1875,0.125
278642029937,-1,0.25,-0.3125
278642038988,-0.875,0.3125,-0.375
278642067426,-0.75,0.5625,-0.5
278642082460,0.1875,0.625,-0.25
278642105787,0.3125,0.375,-0.0625
278642121372,0.75,0.3125,0.1875
278642149968,0.25,0.375,-0.125
278642160351,0.5,-0.1875,-0.375
278642187610,-0.1875,0.375,0
