timestamp,x,y,z
278410575948,0.3125,-1.0625,0.125
278410576769,0.25,-0.875,-0.0625
278410590270,0.25,-0.625,-0.25
278410613902,0.375,-0.4375,-0.4375
278410629011,0.0625,-0.1875,-0.8125
278410659043,-0.125,0,-1.0625
278410680826,-0.5625,0.4375,-0.75
278410703943,-0.125,0.375,-0.6875
278410710368,0.0625,0.3125,-0.625
278410748927,-0.8125,0.6875,-0.25
278410757710,-1,0.6875,0.25
278410784121,-0.25,0.5,0.25
278410794004,0.1875,0.25,0.5
278410811868,0.5,0,0.3125
278410831816,0.5,-0.1875,0
278410855749,0.1875,-0.125,0.25
278410883422,0.125,0,0.3125
278410893610,0.625,-0.1875,0.3125
278410913747,0.25,-0.1875,0.125
278410930732,-0.0625,-0.3125,0.125
278410958453,-0.1875,-0.3125,-0.0625
278410974750,-0.125,-0.3125,-0.1875
278410987798,0,-0.1875,-0.375
278411010862,-0.0625,-0.1875,-0.5
278411034654,-0.125,0,-0.625
278411057380,-0.1875,0.1875,-0.5
278411070948,-0.4375,0.25,-0.3125
278411093417,-0.25,0.125,-0.0625
278411107739,0,-0.1875,-0.125
278411130823,-0.0625,-0.1875,0.125
278411161530,-0.125,-0.1875,0.1875
278411167555,-0.125,-0.25,0.375
278411190216,0.125,-0.1875,0.25
278411213266,-0.125,-0.3125,0.125
278411235711,-0.1875,-0.3125,-0.25
278411258334,-0.6875,-0.25,-0.375
278411273084,-0.625,-0.1875,-0.3125
278411287667,-0.4375,-0.0625,-0.1875
278411311568,-0.3125,-0.0625,-0.1875
278411334689,-0.3125,-0.125,-0.25
278411347630,-0.125,-0.3125,-0.1875
278411370312,0.1875,-0.5,-0.4375
278411393434,0.25,-0.4375,-0.5
278411417247,0.0625,-0.4375,-0.375
278411438310,0,-0.5625,-0.3125
278411461001,-0.0625,-0.5,0
278411469048,-0.0625,-0.3125,0.1875
278411490105,0.375,-0.375,0.0625
278411513280,0.1875,-0.25,0
278411535721,0.25,-0.25,-0.0625
278411550064,0.125,-0.0625,0.4375
278411573294,-0.3125,0.1875,0.875
278411589092,-0.0625,0.0625,0.875
278411611585,0.25,-0.25,0.5625
278411633019,0.25,-0.375,0.4375
278411649181,0.0625,-0.25,0.1875
278411670289,-0.3125,0,-0.125
278411693329,-0.625,0.25,0
278411709721,0.1875,0.3125,-0.3125
278411730328,0.6875,-0.0625,-0.5
278411753492,0.375,-0.4375,-0.625
278411769121,-0.25,-0.375,-0.5
278411791615,-0.375,-0.25,-0.5
278411813325,-0.1875,-0.5,-0.375
278411843898,-0.375,-0.1875,-0.0625
278411850102,0.125,0.0625,-0.0625
278411872791,0.375,-0.0625,0.0625
278411890576,0.0625,-0.0625,0
278411910091,-0.4375,-0.25,0.0625
278411940992,-0.5,-0.4375,-0.0625
278411963096,-0.125,-0.3125,0.125
278411973104,0.1875,0,0.25
278411994127,0.375,0,0.0625
278412009254,0.125,-0.125,-0.1875
278412038296,0.0625,0,-0.25
278412069721,-0.25,0,-0.1875
278412072040,0.25,0,-0.375
278412093515,0.0625,-0.0625,-0.5
278412120884,0,0.1875,-0.75
278412135154,0,0.1875,-0.6875
278412150311,-0.0625,-0.125,-0.375
278412172626,0,-0.125,-0.25
278412195108,-0.1875,-0.25,0
278412218389,0,-0.3125,0.0625
278412240904,0.4375,-0.5,0.1875
278412255041,0.3125,-0.625,0.1875
278412269995,0.125,-0.4375,0.1875
278412292567,-0.4375,-0.3125,0.375
278412315066,-0.4375,-0.25,0.25
278412330146,0.0625,-0.1875,0.125
278412368918,0.0625,-0.25,-0.0625
278412375067,0.125,0.125,-0.0625
278412390056,-0.1875,0.125,0
278412420896,-0.625,0.125,0.125
278412443273,-0.5,0.1875,0.375
278412451533,-0.5625,0.1875,0.3125
278412474044,-0.0625,0.3125,0.3125
278412495140,0.375,0.125,0.0625
278412518307,0.625,0,-0.125
278412532649,0.5625,-0.125,-0.125
278412555230,0.0625,-0.4375,0.0625
278412571593,-0.0625,-0.25,0.0625
278412600871,-0.125,-0.25,0.0625
278412615112,0,-0.0625,0.25
278412646455,0.4375,-0.125,-0.125
278412652642,0,-0.3125,-0.125
278412676570,-0.4375,-0.25,-0.3125
278412699103,0,-0.1875,-0.25
278412722414,0.25,-0.25,0.4375
278412735122,0.4375,0.0625,0.75
278412751584,0.6875,0,0.4375
278412775486,-0.125,-0.4375,0.0625
278412795018,-0.1875,-0.25,-0.0625
278412811588,0.125,-0.25,-0.3125
278412832560,-0.0625,-0.3125,-0.1875
278412855206,0,-0.0625,-0.125
278412880494,0,0,-0.25
278412901080,0.1875,-0.1875,-0.6875
278412924701,0.25,-0.25,-0.5
278412931571,0.25,-0.0625,-0.4375
278412952636,0.375,-0.0625,-0.75
278412975129,0.25,-0.125,-0.375
278412999059,-0.5,0.375,0.0625
278413028977,-0.625,0.5625,0.3125
278413035023,0.125,0.375,0.3125
278413053004,0.875,-0.1875,0.1875
278413074083,0.9375,-0.4375,-0.0625
278413095208,0.8125,-0.5625,-0.4375
278413111538,0.1875,-0.5,-0.375
278413132637,-0.25,-0.4375,-0.5625
278413155317,-0.1875,-0.3125,-0.625
278413179051,-0.1875,-0.3125,-0.375
278413203675,-0.125,-0.1875,-0.375
278413215111,-0.3125,-0.0625,-0.3125
278413232990,-0.75,0.25,-0.25
278413254014,-0.8125,0.3125,-0.0625
278413276551,-0.3125,0.375,0.0625
278413306586,0.1875,0.1875,-0.125
278413312741,0.3125,0,-0.0625
278413335271,0.1875,-0.0625,0.0625
278413353082,-0.4375,-0.125,0.25
278413382261,-0.4375,-0.3125,0.25
278413403308,0.1875,-0.375,0.25
278413411530,0.625,-0.375,0.25
278413434091,0.5,-0.4375,0
278413455088,-0.0625,-0.3125,-0.0625
278413479112,-0.5625,-0.3125,-0.1875
278413500788,-0.375,-0.25,0
278413532850,-0.25,-0.125,-0.0625
278413535173,0.0625,-0.1875,-0.375
278413555527,0,0.0625,-0.375
278413575071,-0.3125,0.1875,-0.4375
278413591546,-0.125,0.125,-0.25
278413628120,-0.125,-0.125,-0.25
278413637986,0.125,-0.1875,0.0625
278413657703,0.0625,-0.0625,0.0625
278413674065,-0.375,0.0625,0.25
278413703248,-0.4375,-0.0625,0.25
278413711575,-0.0625,-0.1875,0.3125
278413735642,-0.3125,-0.0625,0.375
278413758153,-0.0625,0,0.1875
278413771562,0.25,-0.25,0.1875
278413794064,0.375,-0.25,0.25
278413832231,0,-0.3125,0.3125
278413834615,0.0625,-0.25,0.0625
278413860043,0.0625,-0.375,0
278413876498,0.75,-0.4375,-0.25
278413907188,0.625,-0.3125,0
278413913997,0.4375,-0.0625,0.1875
278413935036,0.6875,-0.3125,0.0625
278413952293,-0.125,-0.4375,0.125
278413981600,-0.5625,-0.375,0.0625
278413995215,0,-0.25,-0.1875
278414013158,-0.25,-0.3125,-0.3125
278414035476,-0.1875,-0.1875,-0.4375
278414055148,-0.0625,0.1875,-0.5
278414071646,-0.1875,-0.0625,-0.4375
278414093998,0,-0.3125,-0.5
278414115219,-0.3125,0.125,-0.1875
278414131576,0,0.0625,-0.1875
278414160115,0.5625,-0.125,-0.1875
278414183199,0,0.25,0.0625
278414197634,-0.3125,0.5625,0.125
278414214046,0.375,0.25,0.375
278414238134,0.75,-0.125,0.3125
278414257765,0.375,-0.25,0.375
278414274157,-0.4375,-0.375,0.4375
278414303039,-1.125,-0.375,0.3125
278414317559,-0.4375,-0.125,0.375
278414334014,0.3125,-0.125,0
278414363233,0.875,-0.25,-0.375
278414387200,0.8125,-0.125,-0.6875
278414394107,0,-0.125,-0.625
278414416569,-0.3125,-0.1875,-0.5
278414437700,-0.625,-0.25,-0.5
278414463082,-0.75,-0.0625,-0.25
278414476610,-0.4375,-0.125,-0.25
278414497743,0.0625,-0.25,-0.25
278414514034,0.0625,-0.375,-0.25
278414537955,0.0625,-0.375,-0.0625
278414565848,0.125,-0.375,-0.0625
278414588300,0.1875,-0.5,0.25
278414596731,0.5,-0.25,0.25
278414617603,0.625,-0.25,0.5
278414634043,0.625,-0.25,0.5
278414665607,0.125,-0.125,0.375
278414677629,-0.375,-0.1875,0.3125
278414695422,-0.375,-0.25,0.25
278414716551,-0.125,-0.1875,0.375
278414740533,0.125,-0.125,0.1875
278414754150,0.3125,-0.1875,-0.1875
278414776616,-0.1875,-0.125,-0.5625
278414797695,-0.25,0,-0.625
278414815686,-0.125,0.125,-0.4375
278414844069,0.3125,-0.1875,-0.375
278414868654,-0.0625,-0.3125,-0.375
278414874003,-0.75,-0.25,-0.25
278414896467,-1,-0.25,-0.3125
278414920485,-0.5,-0.375,-0.25
278414942993,0,-0.3125,0.0625
278414956572,-0.3125,-0.1875,0.3125
278414977672,-0.25,-0.125,0.1875
278414995599,-0.375,-0.125,0.0625
278415018082,-0.5,-0.125,0.0625
278415045728,0,-0.1875,0.3125
278415054159,0.3125,-0.125,0.625
278415076500,0.5,-0.125,0.75
278415098999,0.1875,-0.375,0.4375
278415121615,-0.0625,-0.625,0.4375
278415144052,0.3125,-0.625,0.25
278415160577,0.1875,-0.4375,0.125
278415175529,-0.0625,-0.4375,-0.125
278415198135,0,-0.1875,-0.375
278415220992,-0.25,-0.125,-0.75
278415234044,0.125,0,-0.875
278415256501,-0.0625,0,-0.75
278415296119,-0.6875,-0.0625,-0.5625
278415300234,-0.5,-0.125,-0.6875
278415324161,-0.9375,0,-0.3125
278415339657,-1.125,0.3125,0
278415354089,-0.4375,0.1875,0.0625
278415376633,-0.125,-0.0625,0.25
278415400983,-0.375,-0.125,0.1875
278415423157,-0.0625,-0.1875,0.375
278415436584,0.3125,-0.3125,0
278415458452,0.5625,-0.0625,0.25
278415474694,1.125,0.0625,0.1875
278415497704,0.9375,0,0.0625
278415518722,0.5625,-0.0625,-0.0625
278415534634,0.0625,0.0625,-0.25
278415571404,-0.0625,-0.0625,-0.25
278415578317,0.25,0,-0.25
278415602156,0.3125,0.1875,-0.25
278415616483,0,0.375,-0.625
278415645913,-0.375,0.6875,-0.625
278415654047,-0.1875,0.5625,-0.4375
278415677195,0.1875,0.25,-0.1875
278415699679,-0.0625,-0.1875,0.25
278415728977,-0.25,-0.75,0.5625
278415736278,-1.875,-1.3125,0.6875
278415773957,-1.0625,-0.9375,1
278415780800,0.125,-0.9375,1.375
278415795775,1.3125,-1.3125,0.875
278415818651,1.1875,-0.875,0.25
278415850355,0.0625,-0.25,0.125
278415855764,0.125,-0.5,0.1875
278415879665,0.375,-0.6875,0
278415902180,-0.1875,-0.375,0.0625
278415917639,-0.875,-0.3125,-0.125
278415938255,-1.4375,-0.1875,-0.3125
278415977928,-1.125,-0.1875,-0.25
278415980211,-0.25,0.125,0
278416007262,0.3125,0.4375,-0.125
278416028931,-0.0625,0.5,-0.1875
278416051456,-0.375,0.8125,-0.25
278416058361,-0.625,0.5,0.0625
278416082189,-0.3125,0.125,0.25
278416103427,0.0625,-0.125,0
278416120182,-0.375,-0.125,-0.0625
278416141139,-0.125,-0.1875,0.0625
278416158669,0.375,-0.1875,0.25
278416179686,0.4375,-0.0625,0.25
278416200730,0.5,-0.3125,-0.0625
278416216481,0.25,-0.375,0.0625
278416253920,0.125,-0.125,0.1875
278416261231,0.5625,-0.0625,0.1875
278416275548,0.25,-0.25,0.3125
278416305832,-0.25,-0.0625,0.3125
278416330410,-0.375,0.0625,0.25
278416335841,-0.125,-0.375,0.375
278416358279,-0.0625,-0.25,0.3125
278416382174,-0.3125,-0.1875,-0.0625
278416404780,-0.75,0.0625,-0.125
278416418268,-1.25,0.5,0.125
278416440855,-0.625,0.5,0.0625
278416457831,-0.0625,0.3125,-0.25
278416478285,0.0625,0.375,-0.125
278416508260,0.125,0.25,-0.125
278416532843,0.0625,0.0625,-0.1875
278416538196,-0.0625,0.1875,0.3125
278416562105,0.125,0.0625,0.625
278416584807,-0.5625,-0.1875,0.625
278416607254,-0.625,-0.3125,0.3125
278416620917,0.1875,-0.1875,0.125
278416637228,0.75,-0.375,0.1875
278416659804,0.5625,-0.0625,0.125
278416682238,-0.375,0.125,-0.0625
278416697185,-0.625,0.0625,0.125
278416718234,-0.5625,0.125,0.1875
278416749105,-0.375,0,0.125
278416757194,-0.3125,-0.4375,0
278416785894,-0.125,-0.625,-0.25
278416809677,-0.0625,-0.625,-0.1875
278416823222,-0.0625,-0.5625,-0.3125
278416838300,0,-0.375,-0.1875
278416862220,0.125,-0.4375,-0.125
278416885286,0.125,-0.4375,0
278416898895,0.125,-0.125,0.125
278416920830,0.125,0,0.1875
278416937623,0.0625,0,0.1875
278416959690,-0.25,0.1875,0.1875
278416988343,-0.4375,0.5,0.125
278416997152,-0.625,0.3125,0.0625
278417018243,0.0625,0.4375,-0.1875
278417042175,0.125,0.4375,-0.4375
278417064782,0.125,0.5625,-0.5625
278417087384,0,0.5625,-0.625
278417101342,-0.3125,0.5625,-0.3125
278417117243,-0.375,0.75,0.1875
278417139625,-0.5625,0.4375,0.625
278417162307,-0.25,0.1875,0.6875
278417176688,0.4375,0.1875,0.6875
278417198175,0.5625,0.3125,1
278417245362,0.4375,0.375,1
278417247702,0.1875,0.5625,1.3125
278417265720,0.5625,0.5,1.1875
278417280774,0.75,0.25,1.0625
278417321028,0.3125,0.0625,0.875
278417325723,0,-0.125,0.4375
278417342192,-0.25,-0.0625,0.125
278417365110,-0.0625,0.0625,0.0625
278417387659,0.375,0.25,-0.1875
278417400796,0.1875,0.3125,-0.3125
278417417211,-0.375,0.25,-0.3125
278417441200,-0.1875,0.4375,-0.25
278417461910,0,0.1875,-0.25
278417476635,0.5,0.0625,-0.1875
278417515268,-0.4375,0.4375,0.3125
278417520733,-0.6875,0.6875,0.5
278417544841,-0.1875,0.25,0.625
278417567177,-0.375,0.25,0.8125
278417588288,0.3125,0.3125,0.8125
278417596558,0.8125,0.125,0.5
278417620262,0.1875,0.25,0.75
278417642262,-0.0625,0.4375,0.8125
278417665379,-0.3125,0.375,0.75
278417695450,-0.3125,0.1875,0.6875
278417717113,0.125,0.1875,0.4375
278417719682,0.5,-0.0625,0.1875
278417740326,0.25,-0.125,-0.1875
278417768228,-0.125,0.0625,-0.3125
278417792169,-0.625,0.0625,-0.5
278417799704,-0.8125,0.0625,-0.375
278417822204,-0.5,0.0625,-0.1875
278417844659,0.1875,0.0625,-0.125
278417860855,-0.125,-0.125,0.125
278417880875,-0.3125,-0.0625,0.1875
278417897180,-0.1875,-0.125,0.375
278417921160,0.0625,-0.3125,0.5625
278417942188,0.125,-0.4375,0.625
278417956592,0,-0.375,0.4375
278417995403,-0.4375,-0.3125,0.4375
278418000811,-0.5,-0.1875,0.4375
278418024682,0,0,0.1875
278418047372,0.125,0,0
278418069694,0.1875,-0.0625,0
278418076517,-0.125,0.1875,-0.1875
278418099485,-0.5,0.1875,-0.1875
278418120772,0.25,0.125,-0.125
278418152224,0.5625,0.1875,-0.0625
278418159057,0.3125,0,0
278418197072,-0.125,-0.0625,-0.125
278418199486,-0.6875,0.125,0.0625
278418219043,-0.6875,0.1875,0.1875
278418248386,-0.25,0,0.3125
278418272203,0,0.0625,0.375
278418279180,0.4375,0,0.25
278418302167,0.375,0.0625,0.1875
278418324692,0.3125,0.125,0.1875
278418347172,0.1875,0.0625,0.75
278418362131,0,0.125,1.25
278418383262,0.4375,0.3125,1.25
278418398978,0.25,-0.0625,0.875
278418423665,0.125,-0.1875,0.8125
278418450792,0.1875,-0.0625,0.5625
278418474660,-0.0625,0.25,0.25
278418482827,-0.8125,0.625,0.25
278418503227,-0.5,0.8125,0.0625
278418527154,0.25,0.6875,-0.375
278418550548,0.5,0.4375,-0.6875
278418563232,0.4375,0.375,-0.9375
