timestamp,emg1,emg2,emg3,emg4,emg5,emg6,emg7,emg8
278599320006,-1,-1,-2,-1,-2,-1,1,1
278599320006,-1,-1,-2,-1,2,1,-1,-2
278599320693,0,-1,1,-1,-1,0,1,-1
278599320693,-1,-1,0,-1,0,0,-5,-4
278599321502,-1,0,0,-1,-1,-3,-1,0
278599321502,-1,-2,-1,1,-1,-1,0,1
278599334879,-2,-1,-2,-3,0,0,-2,-2
278599334879,-1,-1,-2,-2,-1,-2,0,0
278599336489,-2,1,-1,-1,1,3,-1,-1
278599336489,-1,0,-1,0,0,0,1,-1
278599356513,-2,1,0,2,0,-1,-2,0
278599356513,-2,0,0,-1,-2,-3,-2,-2
278599358141,-2,-2,-2,0,0,-2,-2,-2
278599358141,0,2,0,-3,-1,-1,0,-1
278599372415,-1,-3,0,-2,-1,-3,0,-3
278599372415,-1,-1,-1,-1,-2,-2,-1,2
278599374058,0,-1,-2,-2,-1,0,0,1
278599374058,-1,-1,0,-1,-2,-1,1,0
278599378825,1,1,-2,-1,-3,-1,-2,-3
278599378825,-1,-2,-1,-2,-4,-1,-2,-3
278599392336,-1,-2,-1,-1,2,1,0,-2
278599392336,-1,-2,0,-1,1,-1,0,0
278599419385,-1,-2,-2,0,1,-2,-1,1
278599419385,0,0,-2,-2,0,3,1,-1
278599420266,0,-1,0,0,-2,-1,-1,-5
278599420266,3,0,-1,-1,-1,-1,-1,4
278599423841,0,1,-1,-1,-3,0,1,-1
278599423841,-1,1,0,-1,0,-1,0,0
278599431037,1,-1,-2,-1,-3,-2,0,-2
278599431037,-1,0,-2,-2,-2,-3,-2,-2
278599453392,0,-1,-1,0,0,0,-1,1
278599453392,-2,-2,-2,1,-2,0,-1,-2
278599476065,-2,-1,-1,0,2,2,-1,0
278599476065,0,-2,-1,0,0,0,-2,-2
278599492511,-2,-1,-3,-1,-1,-1,-1,1
278599492511,-1,0,-2,-1,0,1,0,0
278599493345,0,-1,0,0,-2,-1,-1,-2
278599493345,-1,-1,-1,-1,-2,-3,-2,-2
278599494031,1,0,0,-1,-1,0,0,3
278599494031,-1,-1,-1,-3,-1,-3,0,-1
278599506718,-1,1,-1,-1,-1,-1,-1,0
278599506718,-3,-1,0,0,1,2,-2,-1
278599508267,-1,-1,0,0,-1,-2,-1,-3
278599508267,0,0,-1,-1,-1,-1,-1,-1
278599529270,-1,1,0,0,0,1,0,0
278599529270,-1,-2,-1,-2,-1,-1,-2,-3
278599530792,0,0,-2,-3,-3,0,-1,1
278599530792,0,0,0,1,-2,1,1,-1
278599534514,-1,0,-3,-2,-1,-1,0,-2
278599534514,-1,0,0,-1,-1,-2,-1,1
278599543611,-2,-1,-2,-1,0,-1,0,0
278599543611,-1,-2,-2,-2,-1,-1,-1,1
278599558361,0,0,0,0,0,-1,0,0
278599558361,0,0,-3,-1,-2,-3,0,-2
278599574242,0,0,-1,-1,-1,1,0,-6
278599574242,-2,-1,-1,-1,-2,-2,-1,-2
278599575039,-1,-2,-1,0,-1,-2,0,-3
278599575039,1,1,-1,-2,0,0,-2,0
278599587081,-1,-1,1,1,0,0,-1,-1
278599587081,-1,-1,-1,0,0,0,-2,0
278599594757,-1,-1,-3,0,0,-1,-2,0
278599594757,-3,-1,-1,0,-3,-2,-2,-1
278599611070,-1,-1,-1,0,-2,-1,0,-2
278599611070,-1,-1,0,0,0,3,1,-2
278599626000,1,-1,1,0,0,0,0,-1
278599626000,0,-1,-2,0,-2,1,1,-1
278599627574,-1,-3,0,-2,-4,-1,-1,1
278599627574,1,-2,-2,-2,-2,-2,-2,2
278599632306,-1,-1,-3,-2,-2,-4,-1,-2
278599632306,-1,0,-1,-1,1,0,0,1
278599648631,-1,-1,-1,-1,-1,-2,0,1
278599648631,-2,-2,1,-1,-1,-4,-2,-3
278599663459,1,-1,-2,-2,-5,-3,-2,0
278599663459,-1,0,0,-1,0,1,0,1
278599665043,-2,-2,-2,-2,-1,-2,-2,-1
278599665043,-2,-2,-1,-3,-1,1,-3,-4
278599687177,1,0,-1,0,-1,-1,2,-1
278599687177,-1,-1,-1,-1,-2,-1,2,6
278599692796,-2,-1,0,0,2,-1,0,-3
278599692796,-2,-1,-2,-1,-1,-1,-1,-1
278599693466,-3,-2,1,-1,0,-2,-5,-3
278599693466,0,-2,-1,-1,-1,0,0,-2
278599707061,0,-3,-2,0,0,-1,-3,-1
278599707061,-2,0,-2,-1,0,-1,1,0
278599731020,-2,-2,0,0,1,0,0,1
278599731020,0,-1,0,0,-1,-1,-1,-1
278599732546,-2,1,-1,-2,-2,-2,0,-1
278599732546,0,0,1,1,-2,-2,0,0
278599746136,0,-2,-1,0,-2,2,-1,0
278599746136,-3,-1,-3,1,0,0,1,-2
278599747498,-1,0,0,0,-1,-3,-3,-1
278599747498,-1,-2,-1,-2,-2,-2,-3,0
278599752231,-2,-1,-1,-2,1,0,1,0
278599752231,-2,-1,0,-2,-2,-1,-5,-1
278599768599,1,-1,-1,0,2,0,-1,-3
278599768599,0,1,-2,0,-2,2,3,-1
278599784264,-1,-2,0,-1,0,0,0,0
278599784264,-2,0,-1,0,-2,-1,-2,-1
278599785808,-1,0,-1,-1,-3,-4,-4,0
278599785808,-1,-2,-1,0,1,2,-3,-5
278599806060,-1,-1,-2,-1,0,0,2,1
278599806060,1,0,0,-1,1,-2,1,-3
278599807598,-2,-1,-1,-2,0,-1,1,1
278599807598,0,-2,-1,-1,-1,-2,-2,0
278599812228,-1,-1,-1,-1,-2,-5,-6,-5
278599812228,0,-1,0,-3,-4,2,-1,0
278599827327,0,0,-1,-2,-5,-2,-1,-1
278599827327,-1,0,-2,-1,1,0,5,1
278599850965,1,0,0,-2,-4,-4,-12,-2
278599850965,1,0,0,0,1,-1,-2,-2
278599852556,-2,-3,-2,1,-1,-1,-3,-2
278599852556,1,-1,0,-1,-1,0,3,3
278599866034,-1,0,-2,-1,0,2,6,-4
278599866034,-1,-1,-2,-3,-1,-3,-3,3
278599867546,-2,0,0,-3,0,0,-1,-6
278599867546,-2,-2,-1,-2,-1,-3,-3,-1
278599872079,-1,-1,0,0,-1,-1,0,-3
278599872079,0,0,-2,0,0,-3,0,-3
278599888495,-1,-1,-2,-1,0,1,3,3
278599888495,-1,-2,-1,1,1,1,-2,-2
278599903446,1,-1,-1,-1,-3,-2,-1,-1
278599903446,-2,-3,-2,-2,0,-1,-1,-1
278599926713,-1,-1,-2,-1,-1,-2,0,1
278599926713,0,3,0,-2,0,1,-2,0
278599927374,-1,1,-2,-1,0,-1,1,2
278599927374,-1,-2,-2,1,-1,-1,-1,-1
278599929002,0,-1,-1,-1,0,1,-3,-1
278599929002,0,0,0,0,-2,-4,-1,-1
278599940287,-2,0,-1,-1,-2,-1,-1,0
278599940287,-2,-1,1,0,2,1,0,-2
278599947030,-2,-2,-2,0,0,1,-1,0
278599947030,1,0,-1,0,-2,0,-3,-1
278599979694,2,-2,0,-1,-2,-1,1,1
278599979694,-2,0,1,-1,0,-1,0,-1
278599986574,-1,1,-1,-1,-2,0,1,-2
278599986574,-1,0,-2,-2,-1,-1,1,1
278599987368,-1,0,-1,0,0,0,-2,-2
278599987368,-1,-1,-1,0,-1,2,0,-3
278599989079,-1,-3,1,0,1,0,2,0
278599989079,1,-2,-1,0,0,-1,-1,-1
278600008493,-1,-1,-1,1,1,1,-2,-1
278600008493,-1,0,-1,-1,-1,-3,0,1
278600010070,-1,1,-1,-2,-1,-1,-2,-1
278600010070,-1,1,-1,-1,-1,-1,-1,-1
278600014524,0,-1,0,0,-3,1,0,-1
278600014524,0,0,0,-1,-1,0,0,1
278600029590,-2,1,0,-1,0,0,-1,-3
278600029590,-1,0,-3,-1,0,-3,0,-3
278600045953,-1,0,-1,1,3,1,2,0
278600045953,2,-2,-1,-1,-2,-2,-2,-2
278600047511,1,0,0,0,2,-3,1,-1
278600047511,-2,0,-2,-1,-1,-1,-3,0
278600060297,-1,-1,0,-2,0,1,0,-2
278600060297,-1,-1,-2,-1,-1,2,1,0
278600067095,-1,-2,-1,-2,-1,0,-4,-1
278600067095,0,-1,0,0,-1,0,-1,0
278600083458,-3,-1,0,0,-2,-4,-1,-2
278600083458,-1,-5,-1,-1,0,0,0,-2
278600089595,-2,6,-3,-2,-4,-3,-1,-3
278600089595,2,0,2,1,2,3,-1,-1
278600098280,-1,-2,1,0,0,0,-1,-1
278600098280,-3,-1,-2,0,0,-2,-1,-2
278600106075,0,-3,-1,0,-2,0,2,2
278600106075,-4,-1,-2,-2,-4,-3,-2,-1
278600128467,0,0,-2,1,-1,1,-1,0
278600128467,-1,1,-1,0,0,1,-1,0
278600130099,0,-3,-2,-1,2,-2,-1,0
278600130099,-2,1,0,0,2,0,0,0
278600142759,2,3,2,-2,0,-3,0,0
278600142759,0,4,0,-2,-3,-3,-1,-1
278600166690,-8,-12,-5,0,-3,-1,-4,-1
278600166690,-3,-5,-2,-3,-5,-4,-3,-2
278600167424,1,6,-1,-2,-1,-3,-2,-2
278600167424,4,-2,0,-1,-1,-4,-1,-1
278600169022,-1,4,0,0,0,4,-3,-3
278600169022,2,2,0,0,-1,-2,1,-1
278600180310,2,-3,-2,-3,-3,0,2,11
278600180310,2,3,0,-1,1,0,-2,-3
278600187226,0,-4,0,-3,1,-3,1,-2
278600187226,-2,-4,0,0,1,1,-2,-4
278600219339,0,1,0,2,-3,-3,-2,-5
278600219339,-6,-3,-4,0,-1,-3,-5,-4
278600220707,-13,-10,-7,-2,1,1,0,-2
278600220707,8,5,0,-1,0,-1,4,0
278600221715,-3,-5,-1,-1,2,2,0,7
278600221715,2,-1,0,-1,-1,-2,0,2
278600226064,0,8,2,1,-3,-7,-7,-6
278600226064,-11,1,-4,-3,-3,-3,-1,-4
278600241311,-11,-5,-3,-1,-2,-3,-1,-9
278600241311,13,4,2,2,3,5,-1,0
278600248620,2,2,0,-2,-2,-4,5,0
278600248620,4,-5,-1,0,0,1,-10,4
278600254664,1,0,-1,-4,-6,-16,-6,-3
278600254664,-11,4,1,-1,-2,0,5,7
278600286754,-4,-5,-2,-1,0,2,1,-2
278600286754,7,7,2,0,2,0,4,0
278600287364,-4,-5,-4,-5,-2,0,-4,-7
278600287364,-1,0,2,1,1,-3,0,-4
278600289143,-5,0,3,1,2,-3,2,4
278600289143,-1,-1,-3,-1,-4,-1,-1,-3
278600300479,24,5,1,2,6,14,1,0
278600300479,-26,-17,-4,-3,-2,2,4,-2
278600307238,7,14,6,-1,-2,-14,-5,6
278600307238,-6,-20,-3,0,4,1,-1,-1
278600322884,2,24,-2,1,-1,-2,0,-2
278600322884,2,-5,-3,-2,-3,0,-4,-4
278600337814,2,-8,-1,2,0,5,5,-5
278600337814,1,12,-1,-2,-5,-7,-11,-1
278600338705,-47,-30,-7,-7,-2,-7,-5,-6
278600338705,46,12,1,2,0,0,1,7
278600346105,1,14,4,0,1,3,5,2
278600346105,6,-5,-1,-1,2,-3,0,-3
278600360715,30,13,7,1,2,11,0,-1
278600360715,-9,-2,1,5,2,2,-2,-2
278600367216,-30,-9,-12,-4,-4,-9,10,15
278600367216,34,24,15,13,11,10,-1,9
278600382843,-63,-19,-9,-11,-7,-14,-11,-15
278600382843,33,7,4,-5,-1,4,12,0
278600406745,33,-3,-11,-18,-5,6,-19,-10
278600406745,-75,-19,-6,10,1,-20,14,-7
278600407356,5,-4,9,2,-3,-3,-11,5
278600407356,2,30,-17,-7,-6,-8,-18,-27
278600409028,83,-18,-6,-6,-5,8,4,0
278600409028,-96,-63,-10,-12,-6,1,-9,2
278600420399,42,52,24,28,12,9,23,16
278600420399,-20,-36,-13,-15,-6,-3,-6,-1
278600443438,2,8,9,16,9,-4,3,-10
278600443438,9,43,-4,-4,-7,-1,10,-4
278600444262,24,-15,6,-16,-7,-1,-2,-6
278600444262,43,0,0,7,2,-3,-1,-1
278600457865,-103,-27,3,7,-1,11,-17,0
278600457865,32,-10,-22,-3,-4,-23,-3,-1
278600458517,-16,5,12,11,10,14,12,3
278600458517,45,33,27,1,1,5,13,13
278600482429,-25,7,-26,-11,-1,5,-20,-20
278600482429,23,7,12,3,-12,-19,0,-6
278600483239,-97,-68,-41,-40,-18,-23,-28,-9
278600483239,14,36,17,38,10,5,19,30
278600495188,11,44,9,-8,0,3,-1,-1
278600495188,-31,-3,-8,0,-3,6,-7,-14
278600502849,20,-63,-12,-10,-11,-9,-19,-28
278600502849,-78,-32,2,-3,4,11,20,17
278600517748,13,17,12,4,2,12,-2,14
278600517748,22,-17,-10,4,8,34,37,5
278600518555,30,22,11,1,-12,-46,-22,-1
278600518555,-51,-26,-20,-7,-6,-8,-16,-16
278600541078,34,22,11,2,-2,-7,15,6
278600541078,-65,-22,-9,-34,-1,19,-15,-12
278600541738,-31,22,22,1,5,41,38,19
278600541738,60,-54,-15,53,10,16,34,40
278600564001,-15,18,-14,-24,-8,-16,-47,-8
278600564001,56,-2,-1,6,-9,-35,-52,-26
278600564662,-43,-23,-45,-27,-3,19,20,-33
278600564662,38,5,-4,-27,-17,-56,-21,16
278600578471,-17,-21,16,9,16,46,42,-12
278600578471,14,30,27,9,1,-22,-26,4
278600579207,-45,-58,-46,-10,-15,-17,-31,-10
278600579207,45,76,2,-14,0,26,36,25
278600602439,73,-39,-31,-38,-6,-6,23,45
278600602439,-3,35,11,16,-1,0,-2,-2
278600603215,-5,67,14,-7,0,9,6,9
278600603215,-36,-8,-34,32,2,-7,-24,-50
278600623613,9,0,34,22,-2,-12,3,30
278600623613,-52,-58,-23,12,8,18,4,6
278600624254,123,66,-18,13,8,17,6,3
278600624254,-53,-64,73,-44,-7,-4,5,-5
278600637934,37,91,-49,53,9,-2,-9,1
278600637934,40,11,57,10,8,25,45,-4
278600638555,-17,-72,-43,-9,-14,-32,-20,6
278600638555,-44,66,48,-6,9,31,14,6
278600653492,21,-21,-9,-1,-8,-48,1,-6
278600653492,-9,-9,-8,-13,0,4,-25,8
278600660463,76,100,112,11,11,6,25,-23
278600660463,-1,-79,-109,23,-7,21,-14,10
278600683924,-128,-35,38,-11,3,6,-13,-15
278600683924,32,21,-8,-29,-9,-9,8,-3
278600684708,51,37,11,18,12,-30,-22,10
278600684708,23,2,3,-26,-16,-11,-13,-2
278600689550,63,27,-10,-16,4,13,14,-13
278600689550,-8,-15,-13,40,0,7,7,9
278600697107,26,39,44,28,11,28,13,19
278600697107,-57,-34,-18,-19,-6,-21,-22,-43
278600722365,-31,-56,-14,11,-1,-4,2,9
278600722365,5,8,0,-28,-14,-10,0,0
278600723434,-15,-24,-21,-5,6,2,9,15
278600723434,4,13,4,27,-2,-14,-17,-15
278600743435,-62,-30,-1,-44,-11,-7,-8,-23
278600743435,30,22,14,28,9,7,4,13
278600744213,-42,-34,-11,6,-2,1,-1,3
278600744213,-8,8,2,-14,-1,-5,-7,-9
278600757844,10,-1,13,12,-2,1,0,-15
278600757844,-3,-3,-6,-15,-2,0,1,3
278600758523,-2,-18,-7,4,-3,0,-1,0
278600758523,-4,13,-17,-28,-5,-7,-7,-12
278600780721,12,1,2,7,3,-4,2,0
278600780721,-4,-7,-14,-3,9,-3,1,2
278600781432,-15,-6,0,0,-6,-2,0,-3
278600781432,6,10,16,9,4,2,2,3
278600803578,-5,-9,-3,-4,-9,-1,-2,-2
278600803578,-7,-2,-12,-16,1,0,-1,-2
278600804206,-7,-7,-3,4,0,2,-1,-1
278600804206,-5,2,8,1,6,-1,-3,0
278600818133,5,-6,-9,0,-4,-3,-1,-5
278600818133,4,8,7,2,-4,-3,-1,-2
278600842271,-6,-9,-7,-6,1,-1,0,1
278600842271,-5,-3,-3,1,3,-1,0,-2
278600843848,4,8,8,2,0,0,-3,-3
278600843848,-1,-3,1,-1,-3,-1,0,-6
278600844625,-10,-11,-7,2,-1,4,4,14
278600844625,-5,-1,-2,-6,1,0,-4,-5
278600857396,6,1,6,10,0,2,1,-2
278600857396,-1,-2,-3,-6,-3,-3,-4,-1
278600858405,-8,-10,-11,-5,-2,-3,-4,-6
278600858405,3,8,9,3,3,-1,-1,-3
278600877762,3,-1,1,-1,-1,2,3,1
278600877762,-2,-4,-6,-1,-3,-3,-1,4
278600878585,-7,-3,-2,-4,0,-3,-8,-7
278600878585,-1,-1,2,-3,0,-3,1,-5
278600901006,-1,-2,-1,13,-4,-5,0,-4
278600901006,-1,-1,-7,-14,-1,4,2,1
278600901715,-1,-3,-3,-2,-2,1,-3,2
278600901715,-4,-1,0,-1,5,-1,-6,-11
278600923854,-3,-4,-5,9,-11,-5,-5,11
278600923854,3,2,2,2,-2,2,12,7
278600931024,-1,0,-1,-1,-1,4,4,5
278600931024,-4,-2,-3,-2,-2,-3,-12,-7
278600932570,-4,-1,4,-2,3,-2,-14,-23
278600932570,0,1,-2,0,-2,-4,8,4
278600937131,2,0,1,2,2,2,-7,-9
278600937131,2,2,0,-1,-2,1,8,10
278600962447,-2,-1,1,-3,2,3,7,13
278600962447,-7,-5,-4,-2,-4,-4,-13,-12
278600963296,-5,-3,-5,-1,0,-3,5,-20
278600963296,2,2,1,1,-2,-1,-6,4
278600977547,-1,-2,-3,-3,-1,-3,-6,-11
278600977547,2,0,0,-1,1,3,-1,8
278600999184,-6,-3,-3,-1,-4,-4,-11,-5
278600999184,2,2,0,0,-4,-1,19,3
278601000791,8,3,3,-1,5,9,25,36
278601000791,-1,-2,-2,-1,4,-2,-7,-5
278601001583,-4,-2,-1,-1,-1,-2,-11,3
278601001583,-5,-3,-2,-3,-3,-2,-16,-14
278601022436,-2,-4,-1,-5,-2,-6,-4,-8
278601022436,4,2,0,1,-1,3,9,31
278601023386,-3,3,-1,0,-3,-1,5,-5
278601023386,-2,-1,-2,0,1,1,-3,-17
278601035844,2,3,0,-1,2,4,22,12
278601035844,0,1,-1,0,-1,-3,-13,-5
278601036565,-2,-5,-3,-1,-2,-3,7,2
278601036565,1,0,1,1,0,-1,-4,3
278601057767,-5,-3,-1,-3,-3,-6,-16,-20
278601057767,-3,-2,-1,-3,0,-1,3,-12
278601058528,2,1,2,-2,0,-1,4,12
278601058528,0,-1,-1,0,-2,1,6,6
278601073507,-3,-2,-1,-2,1,-3,-16,-8
278601073507,-1,-2,-1,-2,-2,-3,0,1
278601080282,4,0,1,0,3,6,20,22
278601080282,1,-1,-1,-2,-3,-5,-6,0
278601095086,0,-2,-1,0,0,4,4,4
278601095086,-3,-1,0,-1,0,-2,-9,-6
278601119110,-1,-3,-2,0,-2,-3,-4,-11
278601119110,-2,1,1,0,1,2,1,4
278601120745,0,-1,-2,-2,-4,-2,-4,-7
278601120745,-4,-1,-1,1,-1,-1,-12,-19
278601121591,-1,-2,-2,0,-3,-2,4,19
278601121591,2,2,-1,0,3,3,6,11
278601141605,-2,0,-1,-1,0,-4,-2,-14
278601141605,-1,-2,-1,-2,-2,-2,-6,2
278601142378,-4,-1,-1,-2,-1,-4,-5,-16
278601142378,2,2,1,1,1,1,4,20
278601155003,1,-1,-1,-2,-2,-2,-9,-6
278601155003,2,-1,-1,-2,-2,0,4,-1
278601179929,-2,-2,-2,-2,-1,-3,-5,3
278601179929,-2,-2,-3,1,-2,-2,1,-13
278601181422,1,-1,0,-1,-1,-1,2,9
278601181422,-3,-2,-2,-1,-2,1,-8,-17
278601182227,1,-1,1,-1,-2,2,17,16
278601182227,-2,-2,0,-3,-2,-2,-1,-10
278601202100,1,1,-1,-1,0,3,12,19
278601202100,-1,0,-1,-1,-1,-3,-6,5
278601207842,-3,-3,0,0,-2,-1,-13,-18
278601207842,-2,-1,-2,-1,-1,-2,-8,-7
278601214564,-1,-2,-2,-2,1,-1,-5,-4
278601214564,0,-1,0,2,-1,-1,9,4
278601239189,0,-1,-1,-2,0,2,-2,-2
278601239189,0,-2,-1,-1,-3,-2,0,5
278601240718,-3,0,0,-1,0,-2,-2,-4
278601240718,1,0,0,0,-1,1,1,1
278601241431,-1,0,-2,1,1,-1,-4,-13
278601241431,-2,-1,-1,-2,-2,0,-2,-3
278601252188,-2,-2,-4,-2,-3,-2,-4,1
278601252188,-1,-2,-2,-4,0,-1,3,-1
278601260689,4,1,-2,1,1,2,7,10
278601260689,-3,-2,1,1,-1,-1,-4,-7
278601276087,-2,-2,-1,0,-2,-1,-2,-3
278601276087,-2,-3,0,2,-2,-3,2,3
278601290447,-3,0,-3,-3,-1,-6,-15,-13
278601290447,-1,-1,-2,-1,0,-2,10,2
278601298422,2,1,1,-2,-1,-2,-2,-3
278601298422,-2,-1,-2,-2,-2,-2,0,-2
278601299374,-1,-2,-2,0,2,1,-1,-4
278601299374,-1,-2,-1,-1,-1,0,-9,1
278601313601,2,0,-2,-2,-3,1,5,3
278601313601,1,-1,-2,0,0,1,-1,4
278601320308,-1,-2,-1,0,0,0,-2,-6
278601320308,-3,-2,-1,-1,-1,-2,-1,-3
278601334769,-2,-1,-1,1,-1,0,-2,-5
278601334769,0,1,-1,-2,-2,1,-2,-1
278601359121,0,-1,-3,-1,-1,0,8,7
278601359121,0,-1,-1,-1,-1,-2,-2,-2
278601360682,-3,-1,-2,2,0,-1,1,-1
278601360682,0,-1,-1,1,-2,-3,0,-1
278601361496,-2,0,-1,-2,-2,-3,-4,-3
278601361496,1,-1,-2,-2,-1,-1,1,-3
278601372026,0,-4,-2,-3,2,1,2,4
278601372026,-3,-1,-1,-1,-1,0,1,-2
278601395966,-1,-2,-1,-1,0,-2,-4,-3
278601395966,-1,0,-2,-1,0,-2,0,9
278601397509,-1,1,2,0,0,-2,-2,-3
278601397509,-2,-2,-1,0,-2,-2,-3,-4
278601403127,0,-3,-2,-2,-3,-2,-3,0
278601403127,3,1,1,1,-1,2,8,19
278601417780,-1,0,-1,-1,-2,0,-4,-6
278601417780,0,0,0,0,1,3,6,4
278601418580,-3,-1,-2,-1,-2,-4,-5,-3
278601418580,-2,-2,-2,-2,0,-1,-7,-12
278601433607,-1,-1,1,-2,0,3,5,13
278601433607,-1,0,0,-1,-2,-1,-6,-3
278601447882,-2,-2,-1,0,0,-1,6,3
278601447882,0,1,1,0,0,-2,-2,0
278601454553,-3,-2,-3,-1,0,-3,-6,-9
278601454553,-3,-3,-1,0,-1,-1,-3,-10
278601470072,4,1,1,1,-1,1,5,14
278601470072,0,-2,-1,-2,-4,-2,-5,-7
278601480278,1,-1,-1,0,-2,-2,-2,-5
278601480278,-1,-3,-1,-1,-2,-2,-1,-2
278601485236,-1,-1,-1,0,1,0,-4,-9
278601485236,-1,-2,-2,-2,-2,1,-1,0
278601491998,-2,-1,-1,-1,0,-2,-2,0
278601491998,0,1,-2,-2,2,2,1,1
278601515881,0,-2,-1,-2,0,1,-2,0
278601515881,-1,-1,-1,-1,-2,-2,1,-5
278601517518,1,0,0,1,-2,-2,-1,4
278601517518,0,-1,0,1,-1,0,2,-2
278601530245,-1,0,2,0,-2,-1,-3,-3
278601530245,-2,-1,-1,-3,-1,1,-3,-6
278601554198,-3,-1,-3,-2,-1,1,-3,-4
278601554198,2,3,2,-1,1,-1,5,10
278601554902,-2,-3,-3,-1,-3,-2,-4,-6
278601554902,2,0,-2,2,2,2,10,24
278601556530,0,-2,0,0,1,1,-1,-4
278601556530,0,-1,-3,-1,1,-1,-2,-6
278601567891,-1,0,-2,-2,-5,-2,-2,-5
278601567891,-4,-4,-1,-1,0,-3,-11,-7
278601574560,-3,-2,0,-2,-4,-4,3,-9
278601574560,0,-2,0,1,1,1,0,5
278601590321,-2,-2,-2,-1,-1,2,0,2
278601590321,-1,-1,-2,0,-2,-1,0,-3
278601605990,1,-1,-2,-1,1,-1,-3,-2
278601605990,-3,-2,-2,-1,-2,-2,-3,-9
278601606782,-2,0,-1,-1,0,-1,0,0
278601606782,0,0,0,-1,1,1,2,3
278601612225,-1,-1,2,0,2,-1,-2,-3
278601612225,-2,-1,-1,-2,-1,-2,2,1
278601627589,0,-1,-1,0,0,1,0,0
278601627589,-2,-2,-1,-2,-3,-2,-5,-6
278601636117,1,-1,-2,-1,-2,-1,-3,-5
278601636117,-1,1,0,-1,-1,2,3,12
278601642752,-3,0,0,0,-1,0,-4,-6
278601642752,-1,-1,-1,0,0,-3,1,-2
278601674181,1,-2,-2,-1,-2,0,-1,1
278601674181,-1,-2,0,1,-2,-3,-4,-5
278601674828,-2,-2,-1,0,1,0,-2,-3
278601674828,0,0,0,0,1,0,-1,0
278601676498,-2,-1,-2,-2,-1,-2,0,3
278601676498,-1,0,-1,-1,-1,1,2,0
278601687776,0,-1,-2,-3,-3,-2,-2,-2
278601687776,-3,0,-1,-1,-1,2,-7,-9
278601694710,-2,-1,-3,-3,-5,-5,-3,-4
278601694710,2,0,0,0,2,-1,0,5
278601710306,0,-1,0,0,-1,2,5,-6
278601710306,-1,-2,-1,-2,1,0,0,2
278601718851,-2,-2,-1,-1,-1,-4,-6,-6
278601718851,-3,-2,-1,-2,-3,-3,-7,-10
278601725246,3,-1,0,1,3,-2,6,26
278601725246,-2,-1,-1,-1,0,1,0,-4
278601732095,0,0,-1,-1,-1,1,2,1
278601732095,-3,-2,-1,-2,-3,-4,-5,-7
278601747917,-1,-1,-1,-1,-3,-1,-3,-4
278601747917,-3,-2,-2,0,0,-1,4,-1
278601764231,0,1,-2,0,2,1,3,7
278601764231,-4,-2,-2,0,-4,-4,0,-2
278601764896,-3,0,0,1,1,-1,-6,-7
278601764896,0,0,0,-1,-3,-3,0,-2
278601794114,-2,-2,-2,0,-2,0,0,8
278601794114,2,-2,-2,0,-1,2,4,2
278601794853,-1,-1,0,-1,-1,-2,1,-1
278601794853,-1,-2,-2,-1,-3,1,-4,-5
278601796526,-2,0,0,-1,0,-2,-4,-2
278601796526,-1,0,0,-1,0,-1,1,1
278601800697,0,0,-1,-1,-1,-2,1,1
278601800697,1,1,0,1,-2,-2,0,9
278601814779,0,0,0,0,-1,0,0,0
278601814779,-2,-2,-2,0,0,6,0,0
278601830365,-2,-3,-1,-2,-2,0,-2,-5
278601830365,-1,-2,2,-2,-3,-3,0,0
278601846060,0,-1,0,0,-3,-5,-2,-1
278601846060,-1,-1,0,-2,2,-1,-3,-9
278601846781,-1,0,-1,-1,-2,0,-1,-2
278601846781,-2,0,-2,0,1,2,2,1
278601852245,0,1,-3,-1,0,0,1,2
278601852245,-2,-1,0,-3,-2,-2,-3,-2
278601867912,0,-1,-3,0,0,0,-1,-3
278601867912,0,0,-1,1,-1,-2,-2,-2
278601883432,-1,-1,-3,0,3,1,-1,-1
278601883432,0,-2,-1,-1,-1,-2,-1,3
278601884170,0,0,-1,-1,-1,-1,-1,1
278601884170,-1,-1,-1,-2,-1,1,-3,-1
278601906547,-2,1,1,-1,-2,1,-1,-4
278601906547,0,0,-1,-2,1,0,2,2
278601907174,-1,-1,1,-2,1,-2,1,-3
278601907174,3,-1,-1,-1,-4,-1,0,-2
278601913598,0,-2,0,-1,-2,-1,-4,-2
278601913598,-1,-1,-3,-1,-1,1,-4,-1
278601927956,-2,-1,0,-1,-2,-3,-2,-7
278601927956,-1,-1,-1,-2,1,1,1,11
278601951142,-2,-1,-3,0,-1,-1,0,-3
278601951142,0,0,1,1,-1,0,0,1
278601951683,0,-2,1,-2,1,-1,-5,-4
278601951683,-1,-1,-1,-2,2,0,-3,-4
278601958981,-1,-1,0,0,1,-1,0,0
278601958981,-1,-3,-2,-2,-2,-4,-1,4
278601973564,-1,0,-2,-1,-3,-4,-2,0
278601973564,-1,-2,-1,0,0,-2,-1,-6
278601975037,1,1,-1,-1,0,4,4,7
278601975037,-1,1,-1,-1,-1,-1,-1,-3
278601987892,-1,-1,-3,-3,-4,-1,-1,4
278601987892,0,-1,-1,1,-1,0,-1,-4
278602004038,-1,-1,-1,1,-1,0,0,-1
278602004038,-1,0,1,-1,-1,-1,0,-2
278602004768,0,-1,-2,1,-2,2,2,2
278602004768,0,1,-1,-1,-1,-1,1,5
278602025959,-2,-1,0,-1,0,0,-3,-2
278602025959,0,-1,-3,-2,-2,-3,-1,-1
278602026758,-1,-1,-1,-2,-1,-2,-3,1
278602026758,-1,-3,-1,2,-1,0,-1,-5
278602041038,1,-2,0,1,0,0,2,6
278602041038,-1,-1,0,-1,0,-2,-4,-3
278602041689,0,-2,-2,0,-1,-3,-1,-2
278602041689,0,1,0,0,1,-3,-1,-4
278602071171,-1,-1,-3,-3,-2,-3,-4,-3
278602071171,-1,0,0,0,-2,0,1,0
278602071727,-1,0,0,-2,1,4,4,1
278602071727,-2,-1,0,-4,-1,-2,0,0
278602086062,-1,0,0,-1,2,-1,0,-3
278602086062,0,-2,-1,-1,-1,-1,1,-1
278602086812,-3,-2,-1,-1,-2,-2,-4,-2
278602086812,-1,-3,-1,-2,-2,-1,1,-2
278602108489,-1,-3,0,0,-3,-1,0,-5
278602108489,0,-1,-1,0,-2,1,0,1
278602109201,-1,-1,1,-1,-1,1,-1,-2
278602109201,-2,-1,-1,0,-3,-1,-4,-8
278602123537,0,0,-1,-3,-1,-2,2,9
278602123537,-1,-1,-2,1,-1,-1,-2,-2
278602124244,0,0,-1,-1,-2,-2,-1,-2
278602124244,1,-2,-2,-1,-1,0,-2,0
278602145907,-2,-3,0,0,-1,0,0,-2
278602145907,-1,-1,0,-1,-2,-4,-6,-6
278602146699,-2,1,-1,0,0,-4,1,3
278602146699,-1,-2,-2,0,0,-1,-1,0
278602160278,-2,0,-1,0,0,0,-1,-1
278602160278,0,-1,-1,0,-2,0,0,1
278602161142,-2,-1,-2,-1,-4,-3,-3,-3
278602161142,-3,0,2,-2,-1,-1,-1,0
278602182700,-1,-1,-2,0,1,0,-3,-2
278602182700,-2,-1,0,-2,0,-1,0,-1
278602190375,1,0,-2,0,1,3,-1,1
278602190375,-2,-3,-3,0,0,1,2,0
278602205875,-2,-2,-1,-1,-6,-6,-2,-4
278602205875,5,-1,-1,-2,0,-2,-3,0
278602206712,-3,-1,-1,0,1,-1,3,-2
278602206712,0,1,-1,-3,0,-1,-1,-1
278602228644,-1,-1,-2,0,-1,-1,-4,0
278602228644,-1,0,-1,1,-2,0,2,0
278602229195,0,-2,-1,-1,1,0,4,-2
278602229195,-1,2,-2,-2,1,1,-4,-1
278602243426,-1,-1,0,-2,1,-1,0,-1
278602243426,-2,-1,1,-2,-1,-2,-2,-1
278602244220,-4,-3,-1,-3,-4,-4,-23,-5
278602244220,0,2,1,-2,-3,3,21,0
278602266538,0,1,0,0,-2,2,4,-1
278602266538,0,-1,-1,1,2,3,6,2
278602267131,-5,-2,-1,1,0,-4,-3,-1
278602267131,-2,-1,-1,-1,-3,-5,-12,-2
278602280293,3,0,1,2,0,1,0,-1
278602280293,-3,-2,-2,-1,1,2,-1,-2
278602281021,-9,-9,-6,-3,-1,1,1,-2
278602281021,6,4,-1,-3,-1,-2,-4,0
278602311644,2,-2,1,-4,-3,-1,2,-1
278602311644,6,9,3,-1,1,0,2,4
278602312364,-1,1,1,-1,-1,-2,1,-1
278602312364,2,5,-1,2,1,-1,2,-1
278602317151,-8,-8,-8,-3,-1,-2,-2,2
278602317151,-10,-7,-3,-3,-2,-3,-4,-5
278602325344,1,3,1,-1,0,-1,4,2
278602325344,-3,-2,-1,1,0,-2,-5,-3
278602349050,2,5,2,-2,0,-2,-4,-5
278602349050,0,-2,-1,-2,-1,1,-3,-4
278602349655,-2,-3,-4,1,-2,-3,6,7
278602349655,-2,-1,0,1,-1,1,-2,-1
278602363599,-1,3,1,1,3,1,0,0
278602363599,-1,-1,-2,0,-2,-1,-2,-1
278602364254,5,2,-6,-5,-1,1,-2,-4
278602364254,-4,-9,-3,0,-1,0,-1,0
278602386406,-1,-5,-3,-3,-4,-1,2,0
278602386406,2,2,2,2,1,0,0,-3
278602387191,1,0,3,-2,-2,-3,-4,1
278602387191,-1,0,-2,-3,-3,-4,-4,-2
278602408882,-2,-1,-6,-9,-2,-2,-3,-3
278602408882,-1,-9,-4,7,1,0,0,3
278602409673,-5,-3,2,-4,-4,1,-1,-2
278602409673,-2,2,0,1,2,0,0,1
278602447335,5,2,-4,1,3,1,-3,-3
278602447335,-11,-9,-6,3,-2,-4,-5,-2
278602448152,-3,-5,-2,0,1,2,8,-1
278602448152,2,1,4,-1,-1,1,-1,1
278602449608,2,2,2,-2,-2,-1,1,-2
278602449608,3,6,2,-4,1,1,-10,1
278602461747,1,-3,-5,-3,-4,7,-2,-5
278602461747,-6,-6,-1,-5,-2,-5,6,3
278602463210,-1,0,0,3,1,0,-3,3
278602463210,10,4,4,-6,-2,-8,-18,-1
278602464108,-6,2,-4,7,1,-1,15,0
278602464108,7,8,4,-7,2,7,9,0
278602483583,5,-2,0,5,0,2,4,0
278602483583,-32,-22,-6,8,1,5,13,-5
278602484187,9,3,-2,-12,-9,-13,-16,2
278602484187,0,4,-8,-2,-8,-10,-17,-4
278602506521,19,1,3,-2,-2,-3,-2,-4
278602506521,-20,-16,-2,-2,-1,1,-8,-7
278602507159,6,19,3,8,8,14,19,12
278602507159,6,1,-4,-13,0,0,3,1
278602521139,0,-3,6,14,3,3,-3,6
278602521139,13,4,-1,-3,-2,0,0,-1
278602527998,5,-5,0,2,3,2,5,-2
278602527998,-19,-6,2,5,1,2,-4,3
278602543411,-6,4,-1,-5,-1,0,4,3
278602543411,-1,-9,-10,-8,1,0,9,3
278602544367,2,19,4,2,-2,-4,-15,-12
278602544367,0,-1,-6,-2,0,7,-1,2
278602566044,-7,-10,-2,-4,-8,-18,-25,-19
278602566044,-18,-3,5,-3,0,0,19,5
278602566721,7,3,0,1,2,3,-3,1
278602566721,-11,-14,-3,4,-1,0,8,-4
278602580349,1,1,-9,-7,1,11,8,-1
278602580349,-14,-11,-4,-6,-7,-28,-19,-4
278602581058,-8,-4,-2,1,2,-4,-17,-6
278602581058,10,11,0,8,1,-2,-7,-5
278602604973,-10,-7,9,1,-1,-4,-1,-10
278602604973,36,38,-8,-4,-6,7,11,4
278602605734,-37,-18,8,-6,-2,-31,-12,-4
278602605734,48,33,9,15,0,-10,-11,-5
278602626354,-71,-57,-26,-36,-9,18,6,7
278602626354,21,14,14,29,13,17,27,9
278602627330,42,5,-25,-15,-7,12,-2,6
278602627330,-8,-6,8,1,0,-20,-11,-12
278602640847,14,20,9,18,3,1,8,-7
278602640847,-7,-17,4,-33,-5,7,-15,-10
278602641500,3,-16,-21,14,8,38,22,11
278602641500,-15,36,29,-20,-5,-30,-4,1
278602664959,-25,-13,-44,-20,0,12,-14,-17
278602664959,-24,-70,-28,25,-13,-28,4,-4
278602665743,34,50,26,-18,-9,-16,-19,-7
278602665743,-101,-53,-37,36,17,26,20,3
278602687354,62,32,30,-34,1,-21,-8,26
278602687354,62,4,20,45,12,7,-13,-19
278602688045,-87,-46,-32,-30,-19,-14,0,2
278602688045,38,29,8,-4,4,14,1,23
278602700926,-30,9,8,-16,3,30,25,-29
278602700926,46,4,8,17,16,10,18,10
278602701515,-54,14,12,32,-5,-14,-37,-22
278602701515,90,50,63,15,-4,-20,5,20
278602723612,-65,-91,-94,-62,-12,-2,6,-15
278602723612,28,-35,-20,23,-4,-20,6,-1
278602724158,31,35,28,21,22,26,19,27
278602724158,-17,-20,-8,-2,-15,-56,-38,-7
278602737659,-4,22,115,45,13,22,35,-8
278602737659,-61,-22,-108,-36,-8,18,-25,-8
278602745256,-28,35,35,12,1,-49,-14,-2
278602745256,23,-19,-1,15,4,35,5,8
278602760821,107,52,29,15,-3,-38,-15,9
278602760821,-51,-49,23,-82,-16,6,-2,-17
278602761457,27,8,-52,22,19,45,34,-6
278602761457,-27,15,57,-2,-19,-16,-72,-16
278602784880,33,17,-84,55,18,-17,-1,8
278602784880,7,63,101,5,8,13,28,25
278602785884,43,-12,-33,2,-3,5,-2,25
278602785884,-46,-48,-20,-15,-4,2,8,-24
278602797644,10,19,28,6,-3,-1,-14,1
278602797644,-71,8,19,16,-5,-13,-13,11
278602806541,17,-13,4,-16,-3,2,11,-16
278602806541,8,-17,-30,-11,1,19,25,-3
278602821723,-52,-6,2,-3,-12,-9,-9,9
278602821723,29,46,-18,-7,4,1,-5,8
278602822589,3,-43,36,0,-7,-10,-4,-6
278602822589,-2,0,-38,-22,3,11,16,4
278602844953,7,-2,-17,-17,0,1,-7,1
278602844953,-36,-26,-43,-16,-14,-14,-24,-16
278602845866,-15,-24,10,-2,3,-7,7,4
278602845866,22,14,11,1,-1,1,4,-8
278602857515,8,19,12,-4,-10,-1,3,0
278602857515,7,-11,-14,-2,2,3,2,2
278602866449,12,-1,-5,-9,-6,-7,-3,-2
278602866449,-14,-10,-12,-8,-3,4,9,-4
278602883226,-3,1,7,18,2,-1,0,7
278602883226,23,22,3,-5,1,-1,-4,-1
278602883995,-10,-9,-12,0,-4,-6,-11,-7
278602883995,-6,-15,-12,-8,7,6,12,3
278602903405,-5,-16,1,12,-4,1,-6,4
278602903405,11,22,7,3,-2,-4,-4,-5
278602905021,-5,-8,-3,-7,-2,3,5,-2
278602905021,-4,-8,-7,-4,1,5,5,1
278602917680,-1,-2,-7,-1,-3,-4,-5,0
278602917680,2,12,5,-1,0,-2,-2,0
278602941748,-2,4,6,-6,5,-2,-1,-4
278602941748,-3,-7,-13,2,-8,0,-1,-2
278602942543,-4,-2,3,1,2,-5,-2,4
278602942543,5,9,8,11,-1,-1,3,0
278602965587,-2,-3,1,-1,-5,-1,-3,0
278602965587,-4,-5,-8,2,1,-2,-1,-3
278602966443,-5,-4,1,2,-1,2,3,1
278602966443,5,8,5,-2,1,0,-1,0
278602977877,1,-2,-1,-1,-1,-4,-2,-4
278602977877,-4,-5,-7,-4,-1,3,4,1
278602978501,-4,-1,0,-1,-3,0,-3,-1
278602978501,6,7,3,2,1,-2,0,0
278603001741,-2,-4,-1,-4,-3,-1,-4,-2
278603001741,-4,-5,-3,1,-2,0,2,1
278603002520,-2,-5,1,-1,1,-2,-5,0
278603002520,1,4,0,1,-3,-3,-1,-4
278603016666,0,-1,0,-3,-1,1,4,12
278603016666,-2,-3,-1,-3,1,1,-1,-6
278603017469,1,-1,-3,0,-1,-2,2,10
278603017469,-3,0,1,-2,-3,-3,-4,-4
278603023612,0,1,1,-3,0,1,-4,-8
278603023612,3,2,-2,1,1,1,1,3
278603038430,-2,-2,0,1,-2,-1,-6,-1
278603038430,0,0,-2,0,-2,1,10,1
278603061900,2,0,0,-2,0,2,10,11
278603061900,-1,-2,-3,-1,-1,-2,6,6
278603062778,-6,-4,-5,-2,-2,1,-2,3
278603062778,-4,1,1,-1,0,-1,-12,-24
278603099850,-2,-3,-3,-2,-2,0,-2,2
278603099850,2,0,0,-1,-2,1,-3,-2
278603100492,-3,-3,-1,-2,-1,-4,-5,5
278603100492,1,-1,-2,-2,0,-5,4,4
278603102175,-2,-1,0,0,0,-2,-3,2
278603102175,1,-1,-1,-1,-1,-1,7,15
278603121724,0,0,0,-2,-2,0,-2,-8
278603121724,-1,-2,-3,0,-1,-2,-4,-7
278603123216,-4,-1,-1,0,-2,-4,-9,-19
278603123216,-2,-2,-1,1,0,0,1,13
278603124038,-2,-3,0,2,1,3,4,-14
278603124038,2,1,-2,1,2,3,4,27
278603136707,-3,-3,-1,-3,-2,-2,-8,-18
278603136707,-3,-3,-2,-2,-3,-4,0,-4
278603137480,1,0,-1,-1,-2,0,8,7
278603137480,-3,0,0,0,-2,0,-8,0
278603144364,-3,-3,-2,-3,-3,-6,-2,-5
278603144364,3,2,-1,1,2,1,-5,-3
278603157151,1,-1,0,1,0,0,1,8
278603157151,0,0,0,-2,-2,0,-1,-13
278603173597,-1,-1,-3,-3,-4,-3,1,12
278603173597,-4,-2,-2,-2,-1,-1,-13,0
278603179693,-1,0,-3,0,-1,-1,6,-9
278603179693,-1,-1,0,0,-3,-3,-2,0
278603196143,-1,-1,-1,-1,0,-1,2,7
278603196143,-1,-3,-2,-2,-2,-2,4,-9
278603219069,0,0,-1,0,1,-1,-7,4
278603219069,-2,-1,-2,-2,-1,-4,-4,-1
278603220673,0,-1,0,1,-1,1,-1,-9
278603220673,1,0,0,1,1,1,6,-2
278603221542,-1,-1,-1,-2,-2,-3,1,10
278603221542,1,-1,-1,-1,-2,-2,3,2
278603233536,0,-1,0,-1,1,2,-4,2
278603233536,-1,-1,-3,-1,-3,0,-5,-2
278603239558,-1,0,-1,0,-3,-3,-5,-16
278603239558,-2,0,0,1,-2,3,3,-22
278603264891,0,0,-3,0,-2,-3,6,21
278603264891,2,1,0,4,3,1,0,14
278603265586,-1,-1,-2,-2,0,-3,-8,1
278603265586,0,-2,-1,0,-1,-3,-6,11
278603279242,-4,-2,-2,0,-1,0,-5,-46
278603279242,-1,3,1,-1,2,2,3,9
278603280094,-2,1,-2,0,-2,-1,-5,-4
278603280094,1,-1,-1,0,1,-1,-3,10
278603301713,-2,-2,-1,1,-2,-1,-3,-4
278603301713,-2,-3,-1,1,-1,-6,-7,-1
278603302714,-3,-3,-1,1,-1,-1,9,-6
278603302714,-2,-2,-2,-1,2,1,-12,-5
278603314621,4,1,0,-4,-4,-4,15,2
278603314621,1,1,1,-3,0,0,9,8
278603323562,-1,-2,-1,-4,0,0,-12,2
278603323562,-4,-2,0,-3,0,-2,-4,-26
278603339187,-1,-1,0,-4,3,4,-4,10
278603339187,-2,0,-3,-4,-6,-5,-12,-13
278603340201,1,0,0,-1,-1,1,13,4
278603340201,0,-1,0,-2,-2,-2,1,5
278603353468,0,-1,-2,-1,-3,1,-9,-7
278603353468,-1,-2,1,-2,1,2,4,-14
278603359602,-1,1,0,0,1,2,-3,7
278603359602,2,2,0,-2,-1,0,9,11
278603376003,1,2,-2,0,-1,-1,-8,9
278603376003,-1,-3,-2,-1,-2,-2,2,-5
278603383868,0,-1,-1,0,0,3,7,-9
278603383868,0,-1,0,0,1,-2,0,5
278603389559,-1,0,0,-3,-1,-4,2,17
278603389559,-3,-1,-2,-1,-1,-2,-8,-9
278603397178,0,-1,0,-2,-2,-1,-3,-4
278603397178,-1,0,0,0,-1,3,1,0
278603413529,-3,0,-1,1,0,3,-1,-4
278603413529,-2,0,1,0,-1,-1,3,-1
278603419582,-2,-3,-1,1,-2,-1,1,4
278603419582,0,1,-2,-1,-3,-4,-2,4
278603428583,0,-1,-1,-1,-1,-3,-1,-5
278603428583,0,-1,-3,-2,-2,1,-1,5
278603459133,-1,0,1,-1,-1,-2,0,-12
278603459133,0,0,-1,-2,0,3,1,7
278603460704,-1,-1,0,0,1,-2,0,-1
278603460704,-2,-3,-2,-1,1,0,-1,-3
278603461554,-2,-2,-2,-3,0,-5,-6,-2
278603461554,0,1,-3,-2,-2,-2,-3,-1
278603466076,0,0,0,-1,-2,1,6,3
278603466076,0,-1,1,1,-2,0,-4,-2
278603479559,0,-1,-1,-3,-2,1,-4,-1
278603479559,-1,-1,-1,-2,-1,1,8,0
278603496090,1,-1,-2,-3,0,0,3,5
278603496090,-1,-2,-1,-1,-1,-3,-6,-14
278603503934,-1,-2,0,-2,0,-3,-4,1
278603503934,0,-1,0,-2,-1,-4,-4,0
278603509770,-2,-1,0,0,-2,-2,-3,-1
278603509770,-1,-1,-2,-3,0,2,0,-1
278603517160,1,0,-1,1,-2,-2,0,2
278603517160,-2,-2,-2,0,-1,1,-3,-3
278603533500,-2,-1,-2,1,0,0,-1,-7
278603533500,-1,-1,-1,0,-2,0,-1,5
278603548442,-1,0,-3,-2,-3,-5,-2,1
278603548442,-1,-1,0,-1,0,0,2,1
278603550044,-1,-1,0,0,0,1,-4,-6
278603550044,-1,-1,0,-1,-1,0,4,7
278603579224,-1,-1,0,0,1,-1,-5,-4
278603579224,-2,-1,-2,0,-3,2,3,-6
278603580735,-1,-1,-1,2,-3,-1,-3,2
278603580735,-4,-1,-3,-1,-1,-2,-5,-4
278603581578,-1,0,-1,-1,-2,-2,-5,-8
278603581578,-3,-2,-1,-1,-1,-5,-3,8
278603586109,-1,-1,-1,-3,-1,-4,0,-10
278603586109,1,0,0,0,0,0,6,4
278603599620,-2,-1,2,1,1,2,-2,0
278603599620,-2,-2,0,0,-2,-3,-6,-6
278603615999,-1,1,0,-2,-1,1,-3,-3
278603615999,-1,-1,-2,-1,0,-2,-3,-6
278603623419,0,0,-2,-2,0,0,1,-2
278603623419,0,0,-1,0,-1,0,2,0
278603625032,0,-2,0,-1,2,0,-1,7
278603625032,1,0,-1,-3,-2,-2,-2,-6
278603637229,0,0,0,1,0,0,1,2
278603637229,0,-1,0,-1,-1,2,1,13
278603653524,1,1,-1,0,-2,0,2,-1
278603653524,-2,0,-3,0,-4,-2,-5,-1
278603668559,-2,-2,-3,-4,-3,-2,-5,-6
278603668559,0,0,-2,-1,-1,-2,0,1
278603670042,-3,-2,-1,-2,1,-1,2,1
278603670042,-2,-2,0,0,-1,0,-1,1
278603691051,0,-1,0,-1,-3,-2,-2,-1
278603691051,0,0,-1,0,-2,0,-2,-3
278603692544,-2,-2,0,1,0,2,1,-1
278603692544,0,0,-1,2,2,0,1,-1
278603697117,0,-1,0,-2,-1,-2,-2,0
278603697117,-1,1,0,0,0,-2,1,-2
278603706060,0,-2,0,-2,-1,-2,-3,0
278603706060,1,-2,-1,-2,-3,0,0,-1
278603719713,-1,-1,-1,0,1,0,-5,1
278603719713,-2,-2,-1,-2,0,-1,0,-9
278603736101,0,-2,-2,-2,0,2,10,10
278603736101,-1,0,-1,-1,-1,-1,-3,2
278603742707,0,-2,0,-1,1,1,4,1
278603742707,-1,-1,0,0,1,0,-2,-1
278603749642,-2,-1,-2,-4,-2,-3,-4,-5
278603749642,-1,-3,0,-1,-1,-4,0,-1
278603757139,-1,1,-2,-1,0,-1,3,-1
278603757139,0,-1,0,-2,-2,1,0,-7
278603773571,-1,-4,0,0,0,-3,-4,0
278603773571,-1,-2,-1,0,1,-1,-1,-2
278603779620,-2,-1,1,0,-1,-2,-1,4
278603779620,0,0,-1,-1,-3,-1,-1,1
278603788550,0,0,-2,-3,-1,-2,-4,-3
278603788550,-1,-1,-3,-2,-2,-1,-3,-3
278603810944,0,-1,-1,-1,0,1,-1,-7
278603810944,-2,-1,0,-1,-2,-2,5,0
278603812506,1,0,0,0,0,0,-3,3
278603812506,0,-1,-2,0,-1,-1,-4,0
278603825937,-1,0,-1,-3,0,0,1,0
278603825937,-1,-2,-2,-1,0,1,-6,-3
278603827505,0,0,0,2,1,0,-2,-5
278603827505,0,0,0,-2,0,-1,-1,-3
278603855974,-2,-1,0,0,-2,-3,0,-2
278603855974,0,1,0,-1,-2,-5,0,2
278603857563,-2,-4,-2,-1,-2,-1,-1,-3
278603857563,0,0,0,-1,0,2,1,-2
278603862063,-1,0,0,-2,-1,-2,2,3
278603862063,-1,-1,-1,-2,0,0,0,-1
278603871073,0,2,0,0,-1,-1,-1,-2
278603871073,-3,0,0,-1,-1,-2,-1,-1
278603877196,-1,-1,-2,-1,-1,-2,-2,3
278603877196,-1,-2,-1,0,1,0,-4,1
278603893540,0,0,0,-2,0,-1,5,4
278603893540,0,-1,-3,-2,-2,-4,-4,-6
278603908406,-2,-1,-1,-1,-1,-3,-1,-2
278603908406,-1,0,-2,-2,-1,-1,-2,-1
278603910045,-2,-2,-1,1,-1,1,4,1
278603910045,-1,0,1,-1,-3,1,-1,1
278603931683,-3,-1,-1,-1,-2,-2,-1,-2
278603931683,1,-1,-1,-1,-1,1,-1,-2
278603933162,-1,0,0,0,-1,0,-3,-2
278603933162,-2,-3,-1,-1,1,0,2,1
278603945871,-2,-2,0,1,-2,0,-5,-2
278603945871,-3,-2,-2,0,-1,-2,0,-3
278603947551,-1,-1,-2,-1,-1,-3,-3,-1
278603947551,-1,-1,0,-2,0,1,1,-3
278603968471,2,0,0,1,0,0,-1,11
278603968471,-2,-2,-1,-2,0,0,0,7
278603969963,1,-1,0,-1,-1,0,-4,-2
278603969963,-1,0,0,2,-2,0,1,-4
278603982245,0,-2,-2,-1,-2,-2,-1,-7
278603982245,0,-1,-2,-1,-2,-4,-2,-4
278603991078,0,-3,-1,0,-2,1,-1,-1
278603991078,-2,0,-3,-1,0,-1,-2,1
278603997132,0,0,0,0,-1,1,1,0
278603997132,-2,-1,-2,-2,-1,-1,2,-2
278604013590,-3,-2,-1,-2,-2,-1,0,-1
278604013590,1,-1,0,0,-2,0,-2,0
278604019704,0,0,-2,-2,0,-2,-1,-2
278604019704,-1,0,-1,-2,-3,-4,-4,-1
278604028618,0,0,-2,0,1,0,-2,-3
278604028618,1,-2,0,-2,0,-2,-2,2
278604050855,2,-1,-1,-2,-1,3,8,7
278604050855,0,-1,0,2,3,4,-4,-1
278604052495,-1,-1,-3,-2,-3,-3,5,-4
278604052495,-2,-1,0,0,-1,-1,1,6
278604066127,-4,-2,-3,0,-2,-3,-5,-8
278604066127,-1,-2,-1,-2,-1,-1,1,0
278604067571,1,0,-2,-1,-4,-1,-2,1
278604067571,-3,-1,-2,-2,-1,0,-3,-2
278604088516,-2,1,-1,0,2,-2,0,-3
278604088516,-1,-1,-2,0,-1,-1,3,-2
278604090079,0,-2,0,0,0,-2,-2,2
278604090079,2,-2,-3,-2,-2,-3,-3,-7
278604102763,-1,-1,-2,-1,-1,3,-3,-2
278604102763,-1,-1,1,0,-1,-1,3,-4
278604109591,-2,0,0,-1,-2,-2,-2,-2
278604109591,-1,-2,-2,-2,-2,0,0,1
278604133495,-3,0,1,0,0,-1,-2,-2
278604133495,-1,-2,-2,1,1,-2,-3,-2
278604135023,0,1,-1,1,3,3,1,-1
278604135023,1,0,-1,-2,0,-2,0,0
278604139659,-1,-1,-1,-1,0,-1,-1,-2
278604139659,-1,1,-1,0,0,0,-1,0
278604148457,0,-1,-1,-1,-1,-3,-1,0
278604148457,0,-1,1,2,0,0,2,2
