timestamp,emg1,emg2,emg3,emg4,emg5,emg6,emg7,emg8
278635898492,-1,-3,-2,-1,-2,-1,0,-2
278635898492,-1,-1,-1,-2,-2,-1,-2,-2
278635900572,0,-1,-1,-3,-1,-1,-2,0
278635900572,-2,0,0,0,-1,-1,-1,0
278635903712,-2,-3,1,1,-1,0,1,-1
278635903712,-1,0,-1,0,-4,-1,-9,-1
278635904507,-1,0,-1,0,-3,3,11,2
278635904507,-1,1,0,-1,0,2,1,-3
278635927754,1,-2,0,-2,0,-1,-2,1
278635927754,-1,-3,0,-1,1,-6,-3,0
278635929366,1,-2,-1,-1,0,-2,-5,0
278635929366,1,0,-1,0,-1,0,1,-1
278635932764,-1,0,-1,-2,-3,-2,-1,-1
278635932764,-2,-2,-2,0,-2,1,3,0
278635939524,0,-1,0,-1,2,-2,-3,-3
278635939524,-2,-2,-2,-1,1,3,2,0
278635963314,-2,0,1,-1,-1,0,-4,-2
278635963314,0,0,-1,-2,-3,-4,-6,-1
278635964070,-3,0,-1,-2,0,-2,-1,-2
278635964070,1,0,-2,0,-2,-1,3,0
278635977594,-1,0,-1,-1,1,1,-1,-3
278635977594,-2,-1,-1,-1,0,0,2,-1
278635978385,-1,0,-2,0,-2,-1,-4,-1
278635978385,1,-3,-2,-2,-1,0,-4,-2
278635988370,0,-1,-2,-2,-3,-1,1,1
278635988370,-1,-1,-1,0,0,1,2,-3
278636001197,-1,-1,-1,-1,0,-2,-3,-3
278636001197,-2,-1,1,-1,-2,-3,-1,0
278636008521,0,-1,0,1,0,0,-1,-1
278636008521,-1,-2,-1,-2,0,-2,3,0
278636055276,0,1,-1,1,0,0,0,-3
278636055276,-1,-2,-1,1,-3,-1,-5,-2
278636056216,-2,-2,-1,1,0,-2,-1,-2
278636056216,-1,-1,-2,0,-1,-1,-1,0
278636056883,-1,-1,0,-1,0,-3,0,1
278636056883,-2,1,-1,0,1,2,0,-1
278636059301,1,-1,-2,-1,-1,-2,-2,1
278636059301,-1,0,-1,-1,-2,-1,4,-2
278636082570,-1,-1,0,-2,-2,-3,-3,0
278636082570,-2,-2,0,-2,-1,-3,-1,-2
278636083278,-2,-1,-2,0,0,-2,-3,-1
278636083278,-3,-1,-2,0,1,1,-1,0
278636097438,-2,-1,-2,0,1,1,2,0
278636097438,-1,-2,1,-3,-2,-4,-2,-1
278636098215,0,2,0,-2,1,0,-1,0
278636098215,0,-1,-1,-1,-3,-2,-4,-1
278636106435,-1,0,-1,-1,-2,-1,-3,-2
278636106435,-3,-2,-3,0,0,0,4,-1
278636119216,-1,-1,-1,-2,-3,-4,-3,-1
278636119216,-1,1,0,-1,-1,-2,-2,0
278636136416,-1,0,-2,-1,-4,-3,-4,0
278636136416,-2,-1,-2,0,1,-2,1,0
278636137178,-2,-1,-3,-2,-2,-3,0,-1
278636137178,1,-1,-2,-2,1,-2,-2,-1
278636166681,-1,-1,1,0,2,-1,-4,0
278636166681,0,-1,1,-1,-1,2,0,0
278636167457,-2,-3,-1,-1,1,3,5,-3
278636167457,-2,-2,-1,0,-2,0,-1,-2
278636172358,-1,-1,-2,-1,-1,-3,-3,-1
278636172358,0,-2,-2,-2,-1,-1,2,0
278636173211,1,0,-1,-1,-2,-1,-4,-1
278636173211,0,-2,-1,-1,1,0,-2,-1
278636203881,-2,0,-1,0,0,3,5,-2
278636203881,-1,-1,-3,-2,-2,-2,-2,-2
278636204663,-2,-2,-1,-1,-1,-2,-3,0
278636204663,0,-1,-1,-1,0,-3,-4,-1
278636210756,0,-2,-1,-1,-1,0,9,1
278636210756,-1,0,-1,-1,-3,-2,-3,-1
278636216768,0,-1,0,-1,0,0,2,0
278636216768,-2,0,-1,-2,-2,-2,-3,-2
278636239938,-1,-1,-1,-1,0,-1,-3,0
278636239938,-1,-1,-1,0,-1,1,-1,-2
278636240760,-1,0,-2,0,-1,0,-3,0
278636240760,-1,0,-2,0,-1,-2,2,0
278636254858,0,1,0,-2,-2,-2,-2,-2
278636254858,-2,0,-1,-1,-1,-3,-2,-2
278636255639,-1,-2,1,-1,-1,0,-3,-3
278636255639,0,-1,-1,0,-1,1,-1,-1
278636278938,-1,-2,-2,-1,-1,2,8,1
278636278938,0,-2,-1,-1,1,-1,-6,-1
278636279769,-1,0,0,0,2,2,-1,0
278636279769,-1,0,0,-1,-1,-1,-1,1
278636285745,-2,-1,-1,0,-3,-1,-5,-3
278636285745,0,0,-1,-3,-2,0,3,1
278636291766,-2,0,-4,0,0,-1,0,2
278636291766,-2,1,0,-1,-1,0,1,0
278636323882,-1,-2,-2,0,2,1,-3,-1
278636323882,0,0,0,-1,2,-1,1,-2
278636324771,0,-1,-1,-2,-2,-3,-3,-1
278636324771,-1,-2,-1,-1,-1,-2,1,-2
278636330751,0,-1,-1,-2,-2,-2,2,-1
278636330751,-1,-2,-1,1,-1,-1,-1,0
278636336793,-1,-3,0,0,-2,-3,0,-1
278636336793,-1,-1,-3,-1,0,-1,-1,-1
278636359955,-1,-2,-2,-1,-2,-2,-6,1
278636359955,0,-1,0,0,2,-1,0,-1
278636360742,-2,0,-1,0,-1,0,-1,0
278636360742,0,0,0,0,-2,1,3,-1
278636368273,-2,-1,0,-2,1,0,-3,0
278636368273,-1,-2,-2,-2,-2,1,-1,-1
278636374206,-1,1,-1,-1,-1,-2,5,0
278636374206,0,-3,0,0,0,-1,-2,0
278636398912,-1,-1,0,-1,1,0,-1,-3
278636398912,0,-1,0,0,-1,-2,-4,0
278636399760,-1,-1,1,1,1,-2,-1,-1
278636399760,-2,-2,-2,-4,-1,-1,0,0
278636413248,0,0,-1,0,-3,-2,-2,1
278636413248,-1,-1,0,2,-2,-1,-5,0
278636419239,-3,-2,-1,-1,-1,3,5,-1
278636419239,0,0,-1,0,-1,0,-3,-2
278636436403,1,0,-1,0,-1,-2,-5,-3
278636436403,-2,-1,-1,-3,-2,0,3,-1
278636437229,2,0,-1,0,-2,-2,-4,-1
278636437229,0,-1,-1,0,2,0,-1,0
278636450777,-1,-1,-2,0,-1,-1,0,-2
278636450777,-1,2,-3,0,-1,-1,-1,-1
278636456765,0,0,0,-4,-2,-3,0,0
278636456765,-1,-2,-1,-1,-1,-3,0,0
278636479859,0,-2,-1,-3,1,-1,-1,0
278636479859,0,-1,-2,2,-1,-1,-1,1
278636480720,-2,-2,0,-1,-1,0,-3,-1
278636480720,-1,0,0,-2,-1,-2,-4,-1
278636494877,-2,-1,0,-1,-2,1,2,-2
278636494877,0,0,-1,-2,-2,1,1,-2
278636495691,-1,-2,-2,-3,-3,1,-2,1
278636495691,0,0,0,-1,-3,-3,-2,0
278636518911,-1,-1,0,0,-1,-3,-2,-1
278636518911,-2,-2,1,0,0,-2,-2,-1
278636519764,-2,-1,-1,-1,0,0,2,-2
278636519764,-1,-1,-1,-2,-3,-1,-1,-1
278636533211,-1,-1,0,-2,1,0,-1,-1
278636533211,-1,-1,-2,-2,-1,0,1,-1
278636556238,-1,-1,-1,-1,1,2,0,0
278636556238,-3,0,-2,1,0,2,-5,0
278636557935,-1,-1,-1,-1,-3,-2,0,-1
278636557935,-1,-1,-1,-2,-1,-1,-1,0
278636558733,-1,0,-1,-1,-2,-2,-3,0
278636558733,-1,-3,-2,-1,1,-1,0,-1
278636571236,0,-1,-1,2,-1,1,-2,-1
278636571236,-1,0,-1,-1,0,-1,0,-1
278636576941,-1,-1,-1,-1,-1,-3,-3,-2
278636576941,-1,1,1,-1,0,0,3,0
278636601451,-2,1,0,-2,0,0,0,-1
278636601451,-1,-1,0,-2,-2,-1,-4,-2
278636602261,-1,0,0,-1,-1,1,4,-2
278636602261,0,-1,-1,0,1,1,2,0
278636608954,0,-2,-1,-1,-1,-3,-3,0
278636608954,0,0,-2,-1,-1,-2,-3,-1
278636614417,1,-1,0,-1,-1,-2,-6,1
278636614417,-1,-1,-2,-2,-2,0,6,-2
278636638945,-1,-1,-1,0,-2,2,3,-2
278636638945,0,-3,-1,-2,-3,-4,-4,0
278636639766,-2,-1,-2,1,0,-2,0,0
278636639766,0,-1,1,0,2,1,2,-1
278636653262,-1,0,-1,-2,-5,-6,-6,0
278636653262,-1,-1,-1,1,1,1,4,0
278636659488,-2,0,-2,-1,-1,1,-1,-3
278636659488,-1,-1,-1,0,-2,2,-5,-2
278636676423,-2,0,-2,-2,2,0,-1,-1
278636676423,0,0,-1,-1,0,-2,-3,-2
278636677239,1,-1,-1,-1,1,-1,-1,0
278636677239,1,-1,0,-2,-1,1,1,-1
278636699528,-1,-2,0,-2,-1,-3,-2,-2
278636699528,-1,-3,-1,0,-2,0,1,-1
278636700235,0,-1,-1,0,1,-1,-3,0
278636700235,-1,-1,-1,-2,-1,-1,-1,0
278636713291,-2,-1,-1,-1,0,4,2,-1
278636713291,-1,-1,1,0,2,0,-5,-3
278636728132,-2,-1,-2,0,-2,0,-3,-2
278636728132,-1,0,-1,-1,-1,3,3,2
278636729810,1,0,0,0,0,-3,4,1
278636729810,0,-2,-2,-1,0,-1,3,-1
278636734257,1,-1,-3,-2,-1,-2,-2,-1
278636734257,2,6,0,0,-3,-4,-2,0
278636759402,-1,-3,-1,-1,-1,2,0,0
278636759402,-1,-1,-2,-4,-4,-3,-3,-3
278636760347,-3,-3,1,0,-2,-1,-1,0
278636760347,-3,-4,0,-2,-1,0,-1,-1
278636765822,0,-2,1,1,0,0,-1,-1
278636765822,-2,-1,-1,-1,-1,-1,-3,-1
278636796422,0,0,0,-1,-1,2,0,-1
278636796422,-2,-1,-2,-1,-1,0,2,1
278636797946,0,0,0,0,0,-1,-5,-1
278636797946,0,-1,0,-2,0,-2,-1,0
278636798837,0,-2,-1,-2,-1,0,5,0
278636798837,0,-2,0,-2,0,-2,0,0
278636810834,-1,-1,-1,0,-2,-2,-3,-2
278636810834,-2,-1,0,0,0,-2,-1,-1
278636816775,-1,-1,0,-2,-1,-4,-5,-1
278636816775,-2,-4,0,0,-1,-1,-3,-1
278636848992,-4,-1,-2,-1,0,0,2,-1
278636848992,-2,1,0,2,-1,0,-4,-2
278636849496,-2,-1,-2,-2,-1,-1,0,-1
278636849496,-1,-1,-2,-2,-2,-3,0,-1
278636851209,0,0,-2,-1,-1,-3,-5,-1
278636851209,-2,0,-1,-2,-2,-3,2,-1
278636854424,-2,-2,0,0,-2,0,1,-1
278636854424,0,-1,-2,1,0,0,3,0
278636878961,-2,-1,0,0,-1,0,0,1
278636878961,1,0,-2,2,0,2,-3,1
278636879714,-1,0,1,1,-1,-2,2,0
278636879714,-1,0,-1,-2,-4,-6,-6,-1
278636885815,-1,-1,-2,0,0,1,0,-2
278636885815,0,-1,-1,-3,-2,-1,0,0
278636899334,-1,0,-1,-1,2,-1,-2,-2
278636899334,-2,-1,-1,1,-1,-1,-3,-2
278636916432,-2,-2,-2,-1,1,-3,-1,0
278636916432,-1,-1,0,0,-1,2,0,0
278636917370,-2,-1,-1,0,-2,-1,1,-3
278636917370,0,0,0,0,0,0,0,-2
278636931247,0,-2,1,1,-2,-2,-2,0
278636931247,-2,-1,-1,-1,-2,-1,0,-1
278636936876,1,-1,-2,-1,-3,-8,-3,2
278636936876,-1,-5,-1,0,-3,-1,4,0
278636953315,0,3,-1,-1,-3,2,2,-2
278636953315,-2,-2,0,-2,-1,-3,-4,1
278636968178,3,0,0,-1,1,-1,0,-3
278636968178,-1,0,-2,0,2,-4,-5,0
278636969835,0,-2,-2,-1,2,-2,-1,0
278636969835,0,-3,-1,-2,2,-1,1,1
278636974432,-2,0,-2,-3,-1,2,-1,0
278636974432,1,-3,0,-3,0,2,-3,-2
278636990871,-1,-1,-2,-2,-3,1,0,0
278636990871,0,1,-2,0,-4,0,1,1
278636996978,-1,-2,-1,0,-1,-2,-3,0
278636996978,-2,0,0,0,0,1,0,-3
278637013285,-1,0,-1,0,1,2,2,-1
278637013285,-3,-2,-1,0,-1,1,3,-1
278637035638,0,-1,1,0,-1,-1,-1,-2
278637035638,-2,-1,-2,-1,-4,-4,-4,-1
278637037258,0,-1,-2,1,-1,0,-1,-2
278637037258,1,-1,-2,-1,0,0,-1,-2
278637041852,0,-1,-1,-1,-1,0,0,-1
278637041852,-1,-1,0,-1,0,-3,-2,-1
278637058367,-1,-3,-1,-3,-1,0,-1,-2
278637058367,-1,1,-1,0,0,2,1,-1
278637073143,-2,-2,-1,-1,-1,1,-4,-2
278637073143,-1,-3,-1,-1,2,4,4,1
278637074851,-1,-2,-4,-3,-2,-2,4,0
278637074851,0,6,1,-3,-2,0,-1,1
278637088890,-2,0,-1,-1,-1,-3,0,1
278637088890,-1,1,1,0,-1,0,-4,-1
278637090457,2,0,1,0,0,1,-5,-1
278637090457,1,-3,1,-1,-2,-4,-4,-2
278637111366,-4,-2,-2,-1,-2,-4,2,1
278637111366,-2,-6,-3,-3,-2,-2,2,0
278637112955,-2,-1,-2,-3,0,0,3,-1
278637112955,-1,-1,0,-1,1,0,-1,-2
278637126436,-1,1,-1,-1,1,0,-5,0
278637126436,0,2,0,0,2,3,3,-1
278637127950,-1,-1,1,-1,-2,-2,1,-2
278637127950,-7,-6,-5,-2,0,-1,-5,-2
278637155783,4,1,-1,-1,-2,3,3,-5
278637155783,3,1,1,1,-2,-2,0,12
278637157288,-3,8,1,1,-2,-1,1,0
278637157288,-1,-5,-5,-1,0,11,-1,-6
278637161860,-9,-7,-3,-4,-3,-12,-2,1
278637161860,5,4,0,-1,2,2,3,5
278637170775,-5,-2,2,-1,0,2,-3,-2
278637170775,-4,-1,0,1,1,-2,0,-1
278637193629,3,1,0,-1,1,0,-2,-4
278637193629,-3,-3,-2,0,-3,-6,-10,-9
278637195314,-2,-3,-4,-1,-2,-8,-7,0
278637195314,1,-1,-1,-1,-2,1,5,-3
278637208113,1,0,1,-2,1,1,8,19
278637208113,-1,-3,-2,-3,-1,3,-12,-5
278637209802,1,-6,-3,-1,-5,-20,7,-1
278637209802,-4,11,0,-1,-2,-2,-8,-4
278637230625,7,0,1,3,0,2,-1,-5
278637230625,-3,1,-2,-2,-2,1,-6,-1
278637232280,3,-3,-4,-1,2,9,3,0
278637232280,-1,-3,1,0,-1,1,15,-2
278637245731,-4,0,1,0,3,16,-9,2
278637245731,-2,-7,-7,-3,-2,-20,-12,-7
278637247262,10,4,4,0,0,5,2,-2
278637247262,12,14,3,-1,-5,-9,3,10
278637268194,-18,-9,-3,1,-1,16,7,-3
278637268194,-16,-30,-12,-9,-5,4,9,-5
278637269825,-16,-17,-3,-10,-9,-6,-15,-11
278637269825,6,23,0,-1,3,-4,6,23
278637281869,20,4,-1,-19,-2,-4,-4,-15
278637281869,4,-17,-4,13,2,16,-4,-16
278637290818,-25,4,-19,7,0,-10,16,0
278637290818,-1,-10,5,3,-2,-4,-8,25
278637313697,-6,0,1,-6,-2,-8,-3,9
278637313697,28,25,5,-7,1,4,4,-3
278637315248,19,-4,1,-3,0,12,-23,-16
278637315248,-5,-4,-4,7,-2,0,20,-17
278637319319,-10,8,10,3,-1,3,7,1
278637319319,13,16,9,15,-1,2,-4,14
278637328302,-8,-3,-9,-12,5,-8,-2,6
278637328302,-13,-25,-7,-5,-5,-4,-23,-17
278637351260,-24,-12,-5,-6,-1,-1,18,10
278637351260,26,27,9,9,2,0,1,-1
278637352739,-25,-11,11,17,1,5,28,22
278637352739,55,8,-12,-18,-4,4,-21,-13
278637365745,-6,-12,-26,-7,0,-3,-34,-5
278637365745,-14,-7,4,-9,-9,-18,-22,-16
278637367243,39,2,9,18,5,14,52,17
278637367243,-19,9,-7,-13,-3,7,28,6
278637388193,-87,-39,6,5,-4,-13,-41,-10
278637388193,-15,2,-9,-22,1,9,0,3
278637389813,-49,-68,-30,-12,-7,-30,-34,-13
278637389813,11,29,15,8,-3,5,-15,-64
278637410710,54,-25,2,-9,-8,-8,20,32
278637410710,-59,37,6,19,12,10,-9,23
278637412254,-56,28,18,1,6,14,16,20
278637412254,-39,2,-4,11,13,39,36,-39
278637433605,84,113,52,-17,-12,-65,-65,9
278637433605,-78,-94,-31,-1,-1,10,21,16
278637435257,127,42,-18,2,-14,-30,-43,-30
278637435257,-128,-76,6,16,-2,-4,1,-8
278637439280,111,88,5,-1,5,32,35,0
278637439280,-26,-96,-8,-11,-4,18,8,-19
278637448936,31,68,-17,8,-4,-14,-20,-48
278637448936,-60,-95,-55,-55,-10,-18,-17,70
278637470680,-128,-30,-10,42,13,22,41,-25
278637470680,97,97,9,-21,1,14,-24,28
278637472220,-25,-88,21,28,2,-19,-16,-35
278637472220,-13,19,91,-56,-29,-21,-2,-34
278637485055,59,-33,-102,-17,-12,-5,-33,17
278637485055,-77,-33,-36,-4,25,58,25,-45
278637491980,-50,16,56,-3,17,31,26,43
278637491980,49,-6,-44,78,6,-12,23,15
278637508262,-22,50,75,-6,-3,24,-3,29
278637508262,-49,19,-5,23,25,41,55,16
278637509738,-109,-44,53,43,20,46,-12,-33
278637509738,-60,-54,-27,-19,20,17,-29,28
278637522231,47,23,-28,45,9,40,47,4
278637522231,105,45,-11,-20,-40,-73,-36,-5
278637530823,-1,21,114,-5,44,127,70,46
278637530823,62,-35,-97,-41,-33,-101,-82,-18
278637545394,24,28,47,16,-15,-15,-54,-37
278637545394,-70,-52,106,13,11,-9,18,-28
278637551842,-32,64,77,61,29,36,33,3
278637551842,58,104,127,78,14,74,77,60
278637559290,-88,14,-74,22,-22,-42,-54,-69
278637559290,-67,-75,-109,-85,-17,-63,-31,-33
278637568278,104,97,-42,65,-7,-20,-4,-13
278637568278,30,-32,-48,29,32,47,46,30
278637591114,14,-12,78,-62,-25,-60,-28,-7
278637591114,-94,-95,-19,-53,-18,3,-10,-47
278637592714,90,75,38,42,5,-25,-10,87
278637592714,-95,-22,-114,19,9,25,-9,-22
278637605039,-48,-41,36,-26,-16,18,27,12
278637605039,-38,-47,-24,-1,16,52,59,-26
278637629492,57,34,-21,20,-27,-90,-49,43
278637629492,76,46,-11,0,32,73,80,19
278637631032,-71,-86,-48,15,-7,-11,-12,13
278637631032,19,123,82,2,6,-34,-19,-22
278637642570,-34,-111,32,15,24,105,95,-41
278637642570,21,36,-16,-47,-75,-128,-37,25
278637643391,20,-80,-29,16,-1,0,-64,-5
278637643391,65,89,6,16,17,46,50,2
278637650808,-61,-102,-128,-92,-38,-98,-72,18
278637650808,-38,112,127,-5,40,108,63,-51
278637665461,43,-15,-128,-28,-16,-36,-60,-19
278637665461,54,-1,0,-29,-55,-56,-27,15
278637671804,-50,21,-128,-52,-19,-5,-17,-25
278637671804,73,20,70,82,22,81,54,-31
278637679263,-125,-32,76,0,20,-54,-7,28
278637679263,35,26,47,35,6,44,11,27
278637688255,-88,-73,-128,-7,21,52,17,-32
278637688255,17,-34,49,37,-1,-16,-10,41
278637710789,-48,-1,-44,-62,17,39,79,-28
278637710789,65,-33,98,-47,-43,-107,-105,17
278637712294,17,36,-33,10,17,4,-22,48
278637712294,-77,-17,1,-31,-34,-57,-41,-16
278637725114,12,19,93,-27,39,127,119,-1
278637725114,-101,-92,-93,18,-13,-75,-70,26
278637749027,109,115,127,-104,-17,17,-59,-62
278637749027,-22,-94,-88,16,24,-73,-22,3
278637749580,2,10,42,-128,-15,52,26,-11
278637749580,-44,-10,0,29,4,62,117,59
278637751234,119,73,119,-112,1,-28,2,36
278637751234,-51,-27,-92,34,-15,-79,-128,-13
278637761893,24,57,127,122,45,51,64,31
278637761893,57,1,-124,17,45,47,43,-8
278637770757,-77,-44,57,-59,-24,54,89,-19
278637770757,127,71,51,-25,-20,7,-33,12
278637785669,-64,-66,-128,64,3,-18,2,-10
278637785669,1,113,57,-50,-3,60,67,31
278637799308,35,-107,-44,-65,3,18,42,38
278637799308,-84,-18,-78,3,-19,-55,-45,-42
278637808158,-29,-45,92,95,11,82,24,-38
278637808158,15,-62,-114,4,-46,-56,-87,-24
278637809828,36,40,89,93,-2,-38,8,33
278637809828,-99,-58,8,-61,-14,2,-4,-23
278637821867,-32,-12,33,-56,-21,-94,-1,28
278637821867,-57,52,76,44,11,-32,-61,-41
278637830821,-126,-80,-128,-29,-21,-41,-58,-45
278637830821,44,10,26,-54,48,52,42,64
278637844992,125,89,48,56,52,97,95,61
278637844992,-61,-58,1,-65,-37,-94,-52,-15
278637868846,23,55,72,-8,-11,26,8,-92
278637868846,20,0,-81,-8,-2,96,59,-62
278637869671,13,9,14,55,31,1,9,75
278637869671,5,-36,-58,2,25,40,21,29
278637871241,-45,19,68,-84,-76,-44,-49,4
278637871241,32,7,-2,71,33,27,9,-48
278637881916,67,-22,-72,-65,-30,66,70,-5
278637881916,38,40,12,26,-25,-92,-109,-15
278637907164,-86,-82,38,-22,-16,26,33,-5
278637907164,-20,-31,76,37,2,9,18,-10
278637907983,-74,-48,-52,60,25,30,0,12
278637907983,60,34,-33,-108,-45,26,54,-23
278637911883,25,21,-32,108,43,-6,-29,-7
278637911883,35,79,127,39,8,23,14,45
278637928754,-14,-36,65,-15,-41,-64,-59,-54
278637928754,56,43,92,57,92,127,123,15
278637930368,-105,-88,-128,-32,-20,48,-25,-2
278637930368,-33,-63,-67,45,-36,-88,-29,-18
278637941831,82,71,25,35,5,-11,-33,-20
278637941831,33,51,65,0,19,48,52,76
278637958271,18,15,40,62,34,38,67,9
278637958271,-28,-20,-53,-116,-26,-17,6,-47
278637965011,4,18,-5,-128,-45,-85,-97,-3
278637965011,3,7,37,74,34,45,28,4
278637979307,44,-18,-7,79,55,-16,0,-4
278637979307,21,34,42,-14,-23,20,15,42
278637988177,17,10,-42,-24,-36,-41,-3,12
278637988177,-6,1,16,1,16,-4,-12,-54
278637989808,6,26,12,-64,8,-25,-33,2
278637989808,27,26,-20,19,0,11,4,7
278638002449,-12,2,4,-55,-36,-9,9,-10
278638002449,-10,-12,12,30,-17,-10,-22,13
278638027121,-9,-16,-18,29,3,-6,17,-6
278638027121,25,7,0,33,-1,-5,-3,36
278638028103,-22,-10,-11,-27,9,-12,-5,1
278638028103,-23,-9,-25,-24,-17,-1,6,-21
278638031951,27,15,-2,26,1,-10,-5,31
278638031951,4,6,22,-34,8,2,-14,-10
278638048361,-6,6,-12,9,14,0,4,-4
278638048361,-8,-6,1,10,1,2,0,6
278638049783,14,12,-12,-10,-15,-3,13,12
278638049783,-9,-6,23,-37,6,4,-11,5
278638062384,-4,2,-18,13,12,-1,-10,-24
278638062384,-7,-11,-2,7,-8,-3,2,-17
278638078308,-4,-2,-2,-12,-5,-5,-7,11
278638078308,8,9,3,-41,-18,2,18,20
278638084273,-4,-2,-9,19,10,-1,-4,-22
278638084273,6,0,2,8,2,1,2,23
278638100821,-4,6,-6,-13,-20,-4,2,24
278638100821,4,2,8,-19,12,18,-1,19
278638109366,-4,-1,-10,1,6,-4,-9,-14
278638109366,-2,-3,5,-1,-1,-8,-15,31
278638114282,-3,0,-11,-15,-14,-8,-12,-7
278638114282,-2,0,7,-6,5,4,15,7
278638121889,1,-4,-5,9,3,5,22,-6
278638121889,-5,-3,-6,-4,-3,5,-26,-15
278638146498,0,1,-2,8,-6,-8,15,15
278638146498,4,-1,6,-5,1,4,-2,0
278638147407,-1,1,-5,-9,1,0,22,8
278638147407,4,1,-1,1,0,-1,-1,-27
278638153273,-3,2,-5,-2,-5,-6,-12,-28
278638153273,-3,-1,6,-11,1,-3,-15,-29
278638167243,-2,-2,-6,-2,-3,-7,-6,11
278638167243,1,-3,1,7,-1,-1,-4,14
278638184589,1,-1,-2,0,-3,2,11,15
278638184589,-2,-2,-2,-13,-8,-3,9,-7
278638186253,2,1,0,6,4,2,-19,26
278638186253,1,0,1,0,-6,-5,10,6
278638196841,1,2,-1,-2,-2,2,-19,0
278638196841,0,0,1,-7,2,0,22,40
278638220722,0,1,-1,4,5,1,5,80
278638220722,1,-3,-3,-7,-1,0,-7,63
278638222268,-5,-1,-4,1,-6,-7,3,4
278638222268,-4,-1,0,-2,3,8,8,-15
278638243838,1,0,-3,4,2,-1,-22,-23
278638243838,-4,-1,0,2,-2,0,2,-3
278638245384,-1,-2,-3,-1,-8,-12,-28,-21
278638245384,-2,1,0,-3,-1,2,9,-20
278638246276,-3,-1,1,1,-1,-2,5,-34
278638246276,1,-3,-2,-4,-1,0,7,-33
278638258273,1,-2,-2,-1,1,0,6,-25
278638258273,0,-2,1,-4,0,-10,-25,-29
278638265296,-1,-2,-4,-3,-3,-1,5,-22
278638265296,-3,0,1,3,0,-2,-9,-38
278638271832,1,-1,0,-1,1,6,39,3
278638271832,2,-2,-1,-4,-3,-2,-14,-16
278638303963,-2,1,1,1,-2,-3,-3,-29
278638303963,-2,-2,-1,0,-3,-1,-2,-6
278638305424,-3,-2,-2,1,-2,0,-7,-9
278638305424,1,1,1,3,5,0,2,1
278638306194,-4,-6,-6,-4,-5,-5,-1,-16
278638306194,0,0,-1,1,-4,-3,-18,-12
278638318213,1,0,1,0,0,3,15,1
278638318213,-1,-2,0,-2,-2,-4,-2,3
278638340843,-1,-1,0,1,-3,1,-15,-3
278638340843,-6,-2,-2,-2,-1,-1,3,-10
278638342250,-2,-3,-4,-2,-1,-7,-4,-6
278638342250,3,1,1,-3,1,3,8,14
278638356443,1,-1,-1,0,-1,-6,-18,2
278638356443,-2,-2,-1,2,0,3,17,-2
278638357908,0,0,-1,-3,-4,-1,-12,1
278638357908,-1,-3,-3,-1,-3,-3,-8,2
278638378099,0,-1,-1,-3,-1,1,11,21
278638378099,2,2,2,1,1,0,4,4
278638379700,-2,-2,-1,-1,-1,0,-6,-12
278638379700,-2,-2,0,-2,-5,-2,-6,15
278638385518,-3,7,-4,-2,0,-2,-5,-29
278638385518,0,-16,-2,-2,-3,-1,19,7
278638399316,-2,0,0,2,2,4,-7,-5
278638399316,-3,0,6,-3,-1,-7,-15,-9
278638423839,-1,1,-13,-2,-1,1,16,-6
278638423839,-11,-15,-2,-1,0,-4,-7,-9
278638425397,3,12,3,-4,-3,-5,-11,-7
278638425397,5,6,0,0,1,5,1,13
278638426230,0,-2,4,0,1,1,2,-12
278638426230,0,7,-1,-1,2,5,3,-7
278638430809,-1,-12,-4,-2,-2,-1,16,10
278638430809,3,3,1,1,2,0,-5,2
278638460832,0,1,2,-1,0,1,12,3
278638460832,2,-3,-4,1,0,2,-9,-5
278638462255,-4,0,1,0,-2,-4,-10,-15
278638462255,-1,-1,-4,-2,-4,-3,1,5
278638475713,0,-6,0,1,-1,-1,-1,3
278638475713,-1,4,1,-1,1,-1,-3,-9
278638477260,-2,0,-2,0,0,0,5,9
278638477260,-3,-2,-3,0,1,-2,1,-2
278638481910,-2,-7,-1,-1,0,-2,-2,0
278638481910,1,6,-1,-2,-2,0,1,8
278638498275,-3,1,0,0,0,-2,-5,-2
278638498275,0,-4,-2,0,-2,-3,-1,-1
278638513953,-1,1,1,0,-1,5,3,5
278638513953,2,2,-1,0,1,-1,4,-2
278638515449,-1,-2,-3,0,-1,3,-2,5
278638515449,-4,-4,-3,-3,-4,-8,-3,-9
278638544234,0,-1,0,-1,-2,-2,-2,0
278638544234,1,3,1,-1,-2,-3,5,6
278638546016,-1,-3,-1,1,-2,-2,-3,2
278638546016,-2,-1,0,-1,0,-1,-10,-4
278638551070,1,1,0,0,-2,1,-3,-3
278638551070,3,1,-1,0,-1,2,16,10
278638556858,0,-2,-2,-2,1,1,-8,1
278638556858,-4,-3,-2,0,0,-1,-2,-7
278638580658,-1,1,2,0,-2,-6,-4,1
278638580658,-3,-1,-1,0,1,1,-4,0
278638582300,1,0,0,1,1,0,4,10
278638582300,-1,0,-1,-1,0,3,4,-5
278638619579,-1,0,-1,-1,1,-2,-2,-3
278638619579,-1,0,-1,-2,-2,-4,-11,2
278638621135,-1,0,-2,-1,-2,0,2,-3
278638621135,-2,-3,-3,0,-1,1,0,1
278638621945,0,-2,0,-1,-2,-1,-4,1
278638621945,1,2,1,-1,-1,-3,1,-4
278638642804,0,-3,-1,-1,0,-1,-4,7
278638642804,-1,-2,-2,-3,-1,1,2,-1
278638643536,-3,-2,0,0,0,-2,1,-3
278638643536,-3,-1,-2,1,0,-1,-7,-4
278638655414,-2,-1,1,-1,0,-2,-5,-4
278638655414,-1,0,0,-1,-1,-1,3,-2
278638664610,0,-1,-1,-3,-1,-2,0,3
278638664610,-2,-2,-2,-2,-1,-3,-1,4
278638666068,-1,-1,-1,0,-2,-1,2,-4
278638666068,-2,-1,-1,1,-1,-3,-4,-2
278638666885,0,-2,0,0,0,0,-2,-10
278638666885,2,-1,-2,-1,-3,1,13,23
278638678229,3,0,0,-2,-2,1,0,-9
278638678229,-1,-1,-2,-2,-1,-1,-6,-2
278638700609,-1,0,-2,-1,-2,-1,0,0
278638700609,-1,-2,0,0,-1,-2,-4,-1
278638702221,0,0,0,0,-2,-4,1,-4
278638702221,0,-1,-1,-2,-3,-2,-4,-9
278638708519,0,0,0,-1,0,1,6,5
278638708519,0,-1,-2,-3,-1,2,5,-3
278638715761,-1,1,-1,1,1,0,-9,-2
278638715761,-2,-2,-2,-1,1,1,3,0
278638721667,-3,-1,-2,1,1,0,-7,-2
278638721667,-1,-1,-1,-1,0,1,5,-5
278638738271,-1,-3,-1,0,-1,-5,3,-3
278638738271,0,-1,0,0,-1,-3,-5,-3
278638753243,-1,-1,0,-2,0,2,-2,0
278638753243,0,0,-1,-1,1,0,-6,-4
278638754741,-1,-1,-2,-3,-3,-3,1,1
278638754741,0,-1,-1,-2,-2,-1,3,5
278638775699,0,0,0,0,-2,-2,3,5
278638775699,-1,-1,2,0,0,-2,-10,-10
278638777290,-3,-2,-2,-1,-4,-2,0,0
278638777290,2,0,-2,-1,-1,1,3,4
278638791798,0,-1,-1,0,-1,0,2,2
278638791798,0,-1,-2,0,-1,0,-3,2
278638793353,-2,-3,1,-1,0,1,-4,-6
278638793353,-2,-1,-1,-1,-1,0,-1,2
278638814576,-1,-3,0,-2,0,-1,-1,-6
278638814576,0,-1,-1,-2,-2,-1,2,10
278638816090,-1,-1,0,-1,1,-1,-1,-4
278638816090,-1,0,1,-1,1,-1,0,-1
278638827550,-1,0,-2,-1,0,-6,-2,-1
278638827550,-1,1,0,0,-2,-3,-2,0
278638834326,0,-1,-2,-1,-2,0,0,5
278638834326,-1,-1,0,-1,-4,0,3,-2
278638858787,1,-2,0,-1,-1,1,-1,10
278638858787,-2,1,-2,-1,1,0,-10,-5
278638860235,-2,-1,-2,-4,2,4,10,0
278638860235,-1,-1,-2,-1,-2,-2,-1,-1
278638864426,-1,-1,-2,-2,-2,-4,-4,-1
278638864426,0,-1,-1,0,0,2,1,-5
278638873295,1,2,0,0,0,-2,-1,0
278638873295,-2,-1,-1,0,-1,-3,1,-1
278638895659,-1,-1,-1,0,1,-1,-6,-2
278638895659,-2,0,0,0,0,-2,-1,-1
278638897273,1,0,-3,-2,-2,0,0,0
278638897273,-3,0,0,-3,-1,1,1,0
278638911423,-2,0,1,0,-2,-2,2,0
278638911423,-1,-3,2,1,0,-3,-3,-6
278638912906,-1,0,-1,0,-2,0,2,-3
278638912906,-1,-1,-2,-2,-1,-3,-3,1
278638933603,0,2,-1,0,-1,3,3,-1
278638933603,0,-2,-3,-2,-3,-3,-7,-2
278638948806,-2,0,-3,-1,-2,-1,2,4
278638948806,2,0,0,0,0,0,-9,-5
278638949702,-1,-2,-1,-2,0,-1,2,-6
278638949702,4,0,-2,-3,-1,-1,8,9
278638954344,-1,-1,-1,-1,3,-1,-6,-1
278638954344,0,-1,-3,0,2,2,1,-3
278638978588,-1,-1,-1,2,-2,-1,0,6
278638978588,-1,0,-1,-1,-2,0,-2,-7
278638980277,-1,1,0,0,-2,-3,1,-1
278638980277,2,-1,0,-1,-1,-1,-8,0
278638984382,-1,-1,0,-3,-4,1,4,-4
278638984382,-2,-2,1,-1,0,-3,0,3
278638993269,-1,-1,-1,-1,-1,0,4,2
278638993269,-2,0,-2,0,-1,-2,-1,-2
278639015634,0,-2,-1,0,-1,-3,-2,-2
278639015634,-1,0,-2,0,-2,-1,-6,-5
278639017210,0,-1,2,0,-3,0,-3,-1
278639017210,-2,-2,-1,-2,1,0,4,1
278639030739,0,-1,-2,-2,0,0,-4,-3
278639030739,1,-2,-2,1,2,2,0,2
278639032261,0,-2,-1,-1,-1,-2,-4,-1
278639032261,-1,0,0,-1,-1,-2,-1,-3
278639053701,-1,-1,-3,-1,-2,-2,0,2
278639053701,-3,0,0,-1,-2,-1,1,-3
278639068158,0,-4,-2,-2,-3,-1,4,4
278639068158,-1,0,-1,0,-2,0,0,-1
278639069084,-1,-1,-3,-2,-1,-1,-1,2
278639069084,0,-1,-2,-1,-3,-4,-4,-6
278639074251,0,1,-1,2,3,1,0,6
278639074251,0,-1,-1,0,-3,0,-2,4
278639091853,-1,-2,0,-1,-3,-5,-1,-1
278639091853,-2,-2,-3,-2,1,2,5,-2
278639096876,-1,0,0,-1,0,-1,-1,8
278639096876,-3,-3,0,-3,-1,0,-4,-6
278639104315,0,-1,-2,1,0,3,-2,0
278639104315,0,1,0,-1,-2,-1,0,1
278639113316,1,-1,-1,-1,-1,-1,1,-3
278639113316,-2,-1,-2,-2,-1,-4,0,2
278639136138,-2,0,0,0,-1,-2,-1,-6
278639136138,-2,-2,0,-1,0,1,4,3
278639137694,-1,-1,0,-1,0,-1,-3,-3
278639137694,-1,-1,-4,-1,1,-4,-8,-5
278639150840,0,-2,-3,-4,-1,-3,2,-11
278639150840,3,2,1,1,3,4,9,15
278639152209,0,-2,-1,-2,-2,-1,-8,-6
278639152209,-1,0,0,-1,-3,-2,1,2
278639173279,-2,-1,0,-1,-2,0,-1,-9
278639173279,0,-1,0,0,-1,-3,-4,-3
278639174748,-1,-2,-1,-2,-1,-2,2,-2
278639174748,0,0,-1,0,1,-2,0,2
278639189149,0,0,0,-2,-1,4,-2,5
278639189149,0,-3,-3,-3,-3,-1,-3,1
278639195807,-4,1,-1,-2,0,-1,-3,-1
278639195807,0,-1,-1,-1,-2,1,3,-1
278639210815,-1,-1,-1,0,2,-2,2,2
278639210815,-4,-3,-3,-1,-3,-3,-3,1
278639212323,-1,-1,1,0,1,-3,-3,-8
278639212323,-1,-2,-2,-1,0,1,2,1
278639233153,0,-1,-2,-3,-1,-2,-2,2
278639233153,-3,-4,-2,-1,1,0,-6,-7
278639234816,-1,0,-3,0,-1,1,3,-2
278639234816,0,-2,1,-1,-1,2,0,7
278639256261,-2,-3,-1,0,-1,0,-3,0
278639256261,-1,0,-1,-1,-2,-2,0,-3
278639257700,-2,-2,-2,0,-5,0,0,-4
278639257700,-1,-1,-2,-1,-2,-4,0,-1
278639270630,1,0,1,-1,-4,-6,-4,0
278639270630,0,-1,1,-1,0,-1,-4,-1
278639272248,-1,-2,-3,-2,1,-1,-1,0
278639272248,-1,-1,-1,-1,0,-1,-3,-2
278639293174,-2,-1,0,0,1,1,0,0
278639293174,-2,-1,-1,-2,-2,-2,-2,-2
278639294767,-1,0,-1,0,-2,-1,0,0
278639294767,2,2,0,0,4,4,7,6
278639307503,-1,-2,0,-1,-2,-1,-1,-2
278639307503,-1,0,-2,-1,-2,0,-2,-3
278639314409,-2,-2,1,-1,0,-2,-7,-8
278639314409,0,-3,1,1,-1,-1,0,-1
278639331197,2,-2,-4,-1,0,1,4,6
278639331197,0,1,-1,-1,1,0,-3,-2
278639332737,0,-1,-1,-2,-3,-2,-4,0
278639332737,-3,0,-2,-1,-1,0,-1,-6
278639353215,-2,-2,-1,-1,0,0,-5,2
278639353215,-2,-3,-2,-3,-2,-4,0,-2
278639354811,1,-1,0,0,4,1,3,6
278639354811,-1,-2,-1,-1,-1,-3,-2,-2
278639376158,-2,0,-1,-1,-3,-2,-1,-2
278639376158,-2,-1,0,1,-1,-1,-1,0
278639377624,-1,0,-1,-2,-2,-1,0,-3
278639377624,0,-1,-2,-2,-2,-1,1,2
278639390641,-1,0,0,1,1,-3,-4,-4
278639390641,0,-1,-1,0,1,1,1,-1
278639392235,-1,-1,-1,1,-1,3,9,2
278639392235,-1,-1,1,-1,-5,-3,-6,-5
278639413768,0,-3,-1,1,-4,0,0,-5
278639413768,0,-2,0,-2,0,-1,-2,-3
278639415210,-1,-3,-2,0,2,0,1,2
278639415210,-1,0,-2,-1,-1,1,2,4
278639428123,-2,1,0,-1,0,-1,-4,0
278639428123,-1,0,-1,1,0,-2,-1,-1
278639434266,0,0,0,-1,-1,-1,-1,0
278639434266,-1,-2,0,0,0,-4,-1,-3
278639451180,-1,-1,-1,-5,-4,-2,-1,-1
278639451180,1,-2,-2,0,-3,-1,0,4
278639452669,-3,-2,-2,0,1,-2,-4,-4
278639452669,0,-2,-2,1,0,2,1,5
278639464380,-1,-1,-1,1,-1,0,-2,2
278639464380,0,1,-1,-1,2,1,4,-4
278639473313,-1,0,-2,-1,0,0,-8,-2
278639473313,-2,-3,-1,-3,-1,-4,-3,-4
278639487702,-1,0,0,-1,-1,-1,3,2
278639487702,0,-2,-2,-4,-2,-1,0,5
278639501783,-1,-2,-2,-1,0,0,-4,4
278639501783,-3,-1,-1,-1,0,1,-1,-1
278639510222,-1,-1,-1,-1,-2,1,0,6
278639510222,-2,0,-1,-2,-1,1,2,-4
278639533829,-2,0,0,1,-3,-5,-2,-7
278639533829,-1,0,-2,-1,-3,-3,-2,2
278639534493,0,-1,0,0,0,1,2,-6
278639534493,-1,-1,-1,0,1,-3,1,-4
278639536207,0,-1,0,-2,-1,-2,-3,-1
278639536207,-1,0,-1,-2,0,-1,-3,-8
278639547598,0,-1,-2,0,1,1,6,1
278639547598,-1,-2,0,-1,-2,0,-4,-1
278639570739,1,-2,-2,0,-3,0,0,0
278639570739,0,0,0,-2,-1,-1,-4,-8
278639571405,-2,-1,-2,0,0,-2,1,1
278639571405,-2,-1,-1,-1,-1,0,3,2
278639584869,0,0,0,-2,0,0,0,2
278639584869,-1,-3,0,1,0,0,-1,-1
278639585707,-2,-1,-1,-2,-2,-3,-5,-5
278639585707,-2,-2,-3,-1,-1,-2,-4,0
278639593309,-1,0,-1,-4,0,0,0,3
278639593309,-1,0,0,-2,0,1,0,-1
278639607515,1,-1,0,1,-1,-2,-1,-2
278639607515,-3,0,-1,0,-2,-1,-2,0
278639630766,0,-1,0,-1,-2,-4,-5,-6
278639630766,0,1,-1,-1,0,3,10,4
278639631426,0,0,-2,-1,0,1,0,1
278639631426,-1,-2,-1,1,-1,-4,-7,-8
278639646066,0,0,0,0,-1,-1,2,0
278639646066,0,0,-2,1,-5,-2,-3,-4
278639653292,-1,-2,0,-2,0,-2,-2,-1
278639653292,-1,-2,-1,-2,-4,-8,-12,-1
278639654845,-2,-2,-2,-2,0,0,6,-2
278639654845,1,-1,0,-2,0,1,4,7
278639667613,1,-1,-2,-2,3,6,-6,-4
278639667613,0,-2,-2,-2,-2,-4,3,0
278639674424,-1,-2,1,-1,0,1,-3,3
278639674424,-4,0,-1,-1,0,-2,1,-3
278639690588,2,0,-3,-1,-3,-6,-1,1
278639690588,1,0,-2,-2,0,1,-3,-2
278639704315,-4,4,-2,-2,-3,-6,-4,-2
278639704315,-6,-4,0,0,0,5,6,-1
278639713176,3,2,1,2,0,-4,-5,0
278639713176,2,1,0,-2,0,1,5,-3
278639714734,5,2,-1,1,-2,-2,2,2
278639714734,-5,-9,-5,-1,-3,-2,-10,-4
278639728069,-8,-4,-4,-2,-3,3,1,-1
278639728069,0,-1,-2,0,0,1,4,3
278639750743,-9,-7,-2,-3,1,4,-4,-5
278639750743,7,6,1,2,2,-3,-2,3
278639751483,0,3,2,1,-1,-1,-1,1
278639751483,-4,0,0,0,-3,1,1,-1
278639789229,0,-3,-3,-1,3,3,5,-10
278639789229,-3,-3,1,3,-4,-5,-6,-8
278639790140,7,0,1,-7,-3,-4,1,10
278639790140,-1,-2,-4,-4,0,7,0,0
278639791625,8,2,5,6,0,-10,-2,5
278639791625,3,2,-2,4,6,11,5,-9
278639811994,-10,-5,-3,-1,-7,-11,-8,2
278639811994,-1,2,1,-3,-3,-1,-5,-6
278639813570,2,5,8,-2,4,6,6,2
278639813570,2,-5,-7,-9,0,6,3,-3
278639814380,-12,-6,-1,-4,3,12,9,-6
278639814380,1,5,-1,5,-1,-2,-2,-2
278639818223,-11,-5,-4,4,-2,-2,-9,-2
278639818223,13,9,3,2,0,-9,-5,-1
278639849546,8,-1,0,-7,0,3,4,-1
278639849546,-9,-5,1,0,5,4,2,2
278639851069,10,2,5,6,-6,-1,0,2
278639851069,-9,-5,-7,-15,-5,5,-5,5
278639852038,-14,-6,-15,10,-4,-11,8,-6
278639852038,9,3,5,-3,1,1,-2,7
278639887816,0,0,-7,-1,-1,-4,-11,-2
278639887816,5,-4,9,3,-6,-3,10,15
278639888639,3,7,-4,-21,4,10,-3,-18
278639888639,4,-6,-5,8,-4,-15,2,7
278639900538,-4,2,2,4,0,-2,-8,-15
278639900538,-23,-11,1,-15,-3,-3,-3,-9
278639909590,40,30,9,20,2,4,10,20
278639909590,-20,-3,4,-20,-3,1,-2,-10
278639911030,-3,-20,-16,8,5,2,-1,-3
278639911030,7,6,0,-4,-8,-11,-8,2
278639911787,-16,-18,-3,8,7,2,33,-6
278639911787,21,10,0,2,4,7,-3,10
278639932125,-19,-6,-2,-11,-9,-5,-5,9
278639932125,-3,-3,6,5,2,-7,-36,-30
278639932897,4,5,-6,-6,-5,-5,-6,-3
278639932897,4,-3,1,4,4,7,7,-3
278639944221,-11,5,15,-3,0,0,-18,0
278639944221,7,-2,-7,7,2,-1,5,15
278639968946,-9,-11,-4,-5,-2,3,29,-6
278639968946,-8,-3,-3,-4,-4,-11,-37,-19
278639970428,-23,9,-14,0,-2,0,17,-39
278639970428,-28,-19,15,3,-2,-7,-36,6
278639971274,22,23,0,2,-1,1,18,15
278639971274,-17,-39,-17,-5,-5,-8,13,-26
278639991068,48,-8,6,2,-4,-4,9,38
278639991068,1,9,7,-5,-6,1,-9,-14
278639991895,-35,-26,-8,11,7,3,-7,59
278639991895,11,7,-6,-5,-6,-9,2,-17
278640005795,-8,2,-4,-3,3,-2,-54,-48
278640005795,2,7,0,6,6,3,33,-23
278640021091,-30,-21,3,-10,-5,2,-24,26
278640021091,48,24,0,-3,-2,-2,2,-27
278640027427,5,10,0,1,3,3,21,34
278640027427,-12,14,0,5,3,-1,2,7
278640028212,11,14,9,6,-4,-7,-18,-4
278640028212,-34,-15,-13,-7,0,4,19,39
278640043228,8,-11,-10,-10,0,18,51,-30
278640043228,5,19,17,14,-2,-36,-59,9
278640050023,-24,-35,-7,-25,-13,-10,-14,-11
278640050023,7,33,3,24,-1,-5,2,-2
278640056877,-39,-64,-22,-1,9,28,20,51
278640056877,-12,-5,3,-13,-7,12,23,-70
278640089485,10,37,-11,-20,-19,-71,-59,-61
278640089485,-63,-76,-34,-9,-18,-31,-37,23
278640091046,13,45,17,-11,3,0,-3,6
278640091046,14,19,1,22,9,3,20,61
278640091912,51,16,46,-26,-1,-22,-12,-48
278640091912,-73,-41,-29,14,14,71,57,26
278640101814,84,62,31,-7,-18,-54,-20,22
278640101814,60,58,-12,11,8,-8,-5,30
278640125715,9,-55,-49,-6,-6,19,4,9
278640125715,69,35,57,-52,23,32,18,-10
278640127273,-123,-48,-13,30,-3,52,20,-32
278640127273,61,69,-22,36,-6,-48,-33,14
278640141121,73,37,81,-27,-9,-26,-16,6
278640141121,-25,30,15,-81,-15,-1,4,2
278640148204,-23,-105,20,61,26,74,7,-61
278640148204,-16,22,-33,-73,-14,-11,8,8
278640148952,-95,15,63,94,43,71,51,18
278640148952,63,47,4,-7,-28,-43,-59,-24
278640161759,-55,-31,-2,52,39,47,99,54
278640161759,-20,-74,-62,-81,-59,-61,-82,-40
278640177969,75,8,-68,-91,9,52,-3,13
278640177969,91,74,14,98,2,-6,68,-4
278640185825,-71,-85,-44,-63,-18,-40,-33,-10
278640185825,44,7,29,94,39,46,12,8
278640200692,-107,-60,-72,-21,-24,-45,-33,-41
278640200692,117,38,-18,-70,-4,29,-7,40
278640209435,-26,3,-92,21,-12,-43,12,-14
278640209435,-99,-71,21,5,-32,-32,-69,-72
278640216404,21,16,57,59,15,-16,22,30
278640216404,-39,10,82,74,21,16,64,11
278640217863,8,52,50,-94,-25,42,37,91
278640217863,67,-17,22,63,10,34,69,-11
278640245614,24,-45,-61,28,32,12,-13,-26
278640245614,-128,-54,-32,120,24,-16,-43,-10
278640247226,118,71,127,-120,-34,-8,-25,-8
278640247226,70,46,-17,-36,33,112,83,33
278640260746,-30,9,-7,21,-19,-53,-72,-2
278640260746,-51,-84,105,-81,-6,62,56,-19
278640262235,-96,-52,-128,49,7,-75,-97,-79
278640262235,53,14,127,-120,-32,28,42,39
278640283087,-78,-51,-103,0,44,55,94,4
278640283087,52,69,59,78,36,50,39,-51
278640284698,-45,-48,-41,-40,-53,-128,-116,-113
278640284698,-37,37,73,67,-3,-13,-42,-93
278640307093,-105,-40,-73,-124,-45,25,-17,-30
278640307093,84,10,84,-74,-15,8,47,53
278640308619,-67,14,-48,127,62,57,-57,-46
278640308619,-7,18,54,-104,-39,-43,40,46
278640320835,-30,-39,-42,76,-77,-85,-111,-36
278640320835,-117,-89,-36,-79,-3,72,38,7
278640322330,90,-2,-72,18,-7,-88,-44,43
278640322330,-3,56,52,-19,39,127,54,55
278640343113,42,105,63,27,31,-7,-19,24
278640343113,-128,-22,-123,82,-1,30,-22,66
278640344757,127,77,58,20,19,69,72,37
278640344757,-40,-63,-10,12,28,52,-39,-19
278640365861,64,83,108,-79,-55,55,123,-45
278640365861,7,-64,-92,85,-2,-99,-128,-55
278640367259,33,81,127,33,4,14,79,95
278640367259,-121,-103,-128,-30,46,102,127,46
278640373842,88,36,51,69,20,-48,-89,88
278640373842,-93,-8,-25,-58,-37,-58,-6,-71
278640375337,41,7,-73,53,46,57,103,89
278640375337,-36,66,80,60,-18,-84,-43,17
278640403220,-10,-2,127,-92,-2,75,68,23
278640403220,3,-43,-124,-15,10,21,-35,12
278640404741,23,14,127,-108,-68,-93,-106,-18
278640404741,-32,-54,78,-62,24,57,72,3
278640425647,-56,-104,3,33,23,14,-36,14
278640425647,65,89,-25,34,-10,16,16,58
278640427209,-1,15,106,-70,15,121,83,-83
278640427209,36,-43,-116,98,-20,8,7,114
278640432895,113,127,92,30,24,-22,89,-5
278640432895,-120,-116,24,-76,-44,-95,-72,-95
278640440836,82,117,9,-47,-3,20,23,39
278640440836,-19,-75,-106,9,10,-33,-22,-62
278640463283,-44,-2,-27,105,70,115,127,60
278640463283,39,23,57,25,27,15,-47,39
278640464737,-41,36,0,-82,-63,-100,-79,-115
278640464737,-90,-92,-120,-104,-11,-67,-82,8
278640478385,-66,78,84,-11,2,87,81,-22
278640478385,52,31,-41,-57,-6,-36,19,-4
278640479740,-66,-104,-84,106,32,34,34,-2
278640479740,9,82,72,115,9,-77,-26,21
278640500650,60,32,-128,-2,33,70,24,44
278640500650,-92,24,75,-84,-34,35,102,40
278640502287,20,-35,28,68,48,38,-46,-2
278640502287,9,-31,-50,12,6,-22,-10,-54
278640523272,42,-5,75,66,39,28,6,41
278640523272,-40,-17,-63,-52,-37,-19,-25,-85
278640524715,52,82,78,28,-44,48,127,26
278640524715,107,23,27,95,55,25,-9,45
278640538487,16,-58,-42,-83,-32,-8,-63,-92
278640538487,16,15,13,-31,50,92,83,127
278640561436,-46,-56,-87,54,-5,-5,-41,-48
278640561436,-16,38,44,-23,-40,-6,-42,-11
278640562048,-34,-31,59,-10,-46,-72,-10,-33
278640562048,49,9,-52,42,73,72,6,-39
278640563721,0,-15,7,18,-41,-79,-79,13
278640563721,-23,28,76,-27,3,38,85,-77
278640582937,-39,-53,-102,93,10,-33,-62,13
278640582937,56,10,118,-19,-39,71,86,-3
278640597297,-14,29,31,46,62,95,66,41
278640597297,-111,-101,-74,-100,-118,-37,-19,-41
278640622019,-56,10,-107,4,52,45,25,-39
278640622019,60,42,67,38,-20,-23,-3,32
278640623561,57,58,88,37,48,113,126,45
278640623561,16,35,102,42,-36,-43,-47,3
278640624399,6,-51,-46,-128,22,76,105,45
278640624399,-12,11,25,124,-29,-34,-63,-28
278640645302,17,-28,-123,-20,-14,-42,21,16
278640645302,-6,14,26,8,35,52,14,5
278640646196,26,36,127,-59,0,8,-11,-16
278640646196,29,-10,25,-20,-11,-10,14,-7
278640650578,-31,-23,66,-39,-20,-15,-50,-17
278640650578,41,38,-18,-52,-23,-23,-6,-6
278640658125,12,-21,-61,-5,-26,-49,-29,2
278640658125,-29,47,92,-45,0,-12,-15,-38
278640659853,-63,-65,-116,21,-9,-49,-44,-11
278640659853,12,13,-6,22,46,49,53,26
278640681270,-18,-2,4,4,-30,-40,-30,-21
278640681270,37,27,54,-5,18,31,9,19
278640682744,-2,6,-38,-128,-21,-30,-38,-7
278640682744,11,7,-11,67,58,25,14,-11
278640703223,1,3,27,61,-15,-3,-8,32
278640703223,30,3,-49,42,-18,-8,-2,5
278640704716,-11,-9,1,-60,-15,15,11,15
278640704716,-7,-14,-31,-12,-5,-1,-19,-4
278640718261,2,11,19,-14,-26,-45,-32,-52
278640718261,11,-9,-36,-4,21,-14,1,44
278640719778,-38,-10,4,6,15,0,-10,-2
278640719778,4,15,22,-4,12,13,26,-25
278640741106,14,7,8,-1,-13,8,-17,32
278640741106,-13,-15,-29,5,9,-21,-25,-29
278640742689,-11,-5,15,-7,-16,1,-9,-15
278640742689,17,11,5,-14,-7,13,17,-2
278640764236,-2,-11,-11,-15,-3,-15,-13,0
278640764236,0,-2,-16,23,3,-12,-1,-11
278640779032,4,9,28,-11,-1,14,11,23
278640779032,-14,-10,-34,-15,-23,-13,-6,-37
278640780024,-7,8,-26,2,-1,-15,-18,-19
278640780024,1,0,33,-4,9,-7,-10,11
278640801758,-9,-11,16,11,30,23,16,-34
278640801758,4,26,-47,-29,-44,-18,-8,-24
278640802570,-6,-10,19,-5,-9,-10,-17,-36
278640802570,12,13,-3,-6,10,2,4,-7
278640816336,3,-3,7,-18,-14,-2,0,-44
278640816336,-3,-20,5,20,14,1,1,-76
278640817196,2,6,1,3,-11,-2,0,-128
278640817196,-4,-9,-16,-11,-14,-11,-15,-84
278640818756,-2,-6,0,5,2,3,16,39
278640818756,10,5,10,-1,9,4,3,118
278640838195,-1,0,-2,-3,-9,-1,3,127
278640838195,-11,-13,-12,-10,3,-11,-8,125
278640839783,-5,5,-7,1,5,1,-12,115
278640839783,4,7,5,-4,5,3,-11,78
278640852458,1,-3,-2,-4,-12,-3,14,101
278640852458,-3,-9,-16,9,10,-2,6,-4
278640859290,0,11,-1,-5,-2,-1,16,70
278640859290,-6,-5,1,-7,-6,-4,-9,122
278640876054,-4,-7,-2,5,1,-3,-11,126
278640876054,-1,2,-8,-1,0,-7,-13,124
278640877820,2,4,-2,-3,-3,5,12,89
278640877820,4,-5,6,-3,5,6,5,-32
278640898247,-2,-5,-3,2,-1,-3,-6,-77
278640898247,-1,6,-3,-4,0,1,1,-113
278640899728,-1,0,0,-3,-2,0,-6,-107
278640899728,4,-4,-1,3,2,-2,2,-92
278640921124,-4,1,1,0,-4,-2,-4,-101
278640921124,-4,-5,-4,-2,-3,-2,-5,-86
278640922646,-9,-3,0,-2,-4,-2,-7,-49
278640922646,-3,3,5,1,1,2,2,-48
278640935721,-4,-3,-1,-1,-3,-3,3,-75
278640935721,-3,-4,-4,-4,-2,1,14,-64
278640937216,1,1,0,5,4,6,12,-91
278640937216,-2,0,0,-12,-2,-1,2,-72
278640958228,-7,-2,-1,-4,-7,-5,-15,-62
278640958228,-3,3,-2,-1,0,-6,-7,-38
278640959720,-3,0,-2,-1,-4,-1,-13,-57
278640959720,3,0,2,-1,-1,0,6,-25
278640982004,2,-1,1,1,2,4,10,22
278640982004,-2,-2,-2,0,1,-1,-6,-5
278640983649,-2,-2,1,3,3,0,-9,-10
278640983649,2,-4,0,-5,-6,-8,-12,-14
278640996177,6,0,-2,0,-4,-2,17,9
278640996177,5,-1,1,2,1,2,0,6
278640997806,4,1,2,0,-1,1,4,29
278640997806,-5,-6,-3,0,-3,-4,-16,-19
278641019305,-1,2,-2,-1,-1,3,12,1
278641019305,6,1,-1,1,0,-2,-37,1
278641020827,1,-5,-1,-6,0,2,44,-10
278641020827,3,-1,1,0,-1,1,-12,24
278641056651,-3,-3,-1,1,1,0,1,-9
278641056651,2,0,-2,-6,0,-5,-11,11
278641079445,-3,-2,-1,-3,-3,-2,-8,2
278641079445,-2,2,2,4,-1,-1,14,2
278641080247,0,0,0,-3,0,4,-5,-1
278641080247,-2,-4,-1,-1,-2,-2,4,-13
278641081879,-2,-2,-2,-1,-7,-1,-17,-2
278641081879,-4,1,-3,-8,-3,-5,-3,-10
278641094445,-1,-1,-2,1,-2,-4,-11,-30
278641094445,3,1,-1,1,1,4,17,43
278641101299,-2,-3,-4,-1,-2,-5,-4,-9
278641101299,-1,-2,-1,2,2,2,1,-2
278641102109,0,-1,1,2,4,-4,-13,8
278641102109,-3,-3,-5,-12,-11,-3,18,-13
278641103746,1,1,0,-2,2,5,2,-20
278641103746,-2,-3,-2,5,-2,-4,-19,7
278641116104,-4,0,-3,-3,-2,-5,1,-23
278641116104,3,-1,0,0,4,5,17,39
278641117743,0,0,0,-1,1,-3,-16,10
278641117743,-3,-2,0,-4,-2,1,5,2
278641131012,-5,-3,-1,-1,-3,-4,-14,-5
278641131012,-1,0,1,4,0,2,4,-6
278641138288,-3,-3,-4,-2,-2,-4,-12,-8
278641138288,2,0,0,1,2,1,13,5
278641153637,0,0,-1,2,1,1,3,23
278641153637,-7,-3,-3,0,-4,-11,-25,-18
278641166893,2,-1,1,-4,0,3,13,-4
278641166893,-2,0,0,0,2,2,6,-10
278641175656,-1,-1,-1,-1,-3,-1,3,13
278641175656,0,2,-2,-1,-2,-5,-50,-5
278641177201,-7,-3,0,0,-5,-7,29,-33
278641177201,4,1,0,3,5,7,15,15
278641198303,-2,-2,-1,-3,0,-3,-1,-13
278641198303,-2,-1,-2,2,1,-2,-7,6
278641199718,2,1,0,0,1,-3,-34,-2
278641199718,-2,-2,-1,-2,-3,0,6,-5
278641212600,1,1,1,-1,0,1,10,3
278641212600,-1,-2,-2,2,-3,-1,2,-6
278641219273,-2,-3,-3,-3,-3,1,-5,18
278641219273,-2,-3,0,-2,-4,-4,-3,-12
278641235747,2,0,-1,1,1,1,-12,-2
278641235747,-1,-1,-2,0,-2,-4,19,1
278641237261,-1,0,-3,-1,0,1,-4,5
278641237261,1,0,-1,1,0,0,4,12
278641249392,-2,-2,-1,-1,-1,0,-5,2
278641249392,-1,-2,0,-1,2,1,11,-2
278641258283,-2,0,-1,0,-2,-2,-13,-14
278641258283,-1,0,-1,1,0,1,-3,7
278641273096,1,1,0,-1,2,5,3,6
278641273096,1,0,-1,0,0,2,11,-2
278641296304,-2,-1,-2,0,2,-3,-3,13
278641296304,-1,0,1,-1,1,-2,3,-5
278641297045,-1,-3,-3,1,-2,-1,-5,3
278641297045,-2,-1,0,-2,0,-2,-2,-6
278641298686,0,-1,1,-1,-2,-2,6,10
278641298686,-1,-1,-2,-1,-2,-6,-4,2
278641318081,0,0,-2,0,-2,-1,-1,1
278641318081,-1,-1,-1,-3,-2,0,8,2
278641319802,3,-1,-1,2,0,4,-3,0
278641319802,0,-3,-2,-9,-8,-5,-2,9
278641332504,-2,-3,-2,-2,-1,-3,-3,-3
278641332504,0,-2,-2,-1,0,2,3,-4
278641339345,-2,2,0,1,3,-1,-7,-4
278641339345,-2,-1,-1,1,2,-2,-5,7
278641356285,0,-1,-1,1,1,-1,-1,-24
278641356285,-1,1,1,1,-1,0,4,9
278641357702,-2,-2,-3,-3,-2,2,11,6
278641357702,-1,0,0,1,0,0,-11,1
278641369445,-3,-1,-2,-2,-3,-1,2,-17
278641369445,2,2,1,2,2,3,5,11
278641378284,0,-1,-2,-1,-5,-6,-13,-2
278641378284,-1,-1,-2,0,2,2,4,-3
278641393001,0,-2,0,-1,-1,-2,-1,13
278641393001,-2,-2,-2,-4,-2,-2,0,0
278641406760,1,0,-1,1,1,1,0,1
278641406760,-2,-1,-2,-4,-2,-3,-7,-7
278641415103,1,0,0,-3,1,-3,-1,-3
278641415103,-1,-2,0,0,0,0,0,4
278641429933,0,0,-1,-3,0,-1,7,11
278641429933,-1,-3,0,1,-1,-1,-10,0
278641430731,-4,-1,-2,-2,-4,-2,0,5
278641430731,3,1,0,1,0,3,8,19
278641438285,-2,-1,-3,-4,-4,-3,-3,-11
278641438285,-2,-2,0,-1,-2,-3,1,-3
278641452443,1,1,-1,0,-1,0,3,6
278641452443,-1,-2,-3,-1,-2,0,0,-11
278641459390,0,-1,0,-1,-1,-2,5,-3
278641459390,-2,1,-2,0,-2,-3,-4,-11
278641475480,1,1,1,0,0,1,6,3
278641475480,-1,0,0,1,1,-3,-11,-11
278641481754,0,0,1,0,0,-1,1,-2
278641481754,-1,-3,0,-1,-1,-3,0,-3
278641489293,-4,-1,-2,-2,-2,1,-7,-4
278641489293,-4,-4,-2,-2,-3,-2,0,-5
278641498264,0,1,3,1,3,4,2,3
278641498264,1,-2,-3,0,-1,-2,2,5
278641513042,2,0,1,-2,-1,-5,-3,2
278641513042,-2,-1,-2,-2,-1,-5,1,-3
278641519383,-3,-2,-2,0,0,-2,1,-8
278641519383,-1,-1,-1,0,2,4,2,-2
278641534898,-1,-1,-2,-2,-2,0,-3,5
278641534898,-1,-1,-1,-1,-3,1,-4,-5
278641541818,-1,-1,0,-1,-3,0,-3,5
278641541818,1,0,-1,-1,-1,-1,4,8
278641549367,0,0,0,1,2,2,-6,0
278641549367,-1,0,0,0,2,-2,0,-2
278641558247,-1,0,0,-2,-1,0,-2,3
278641558247,-2,0,-1,-1,-3,-4,-9,-6
278641572561,3,-2,0,-2,-2,1,3,9
278641572561,0,0,-2,-2,-1,-5,-6,-1
278641595738,1,0,0,-2,0,2,4,14
278641595738,-1,-2,-2,-2,2,5,7,-3
278641596486,-1,-2,-1,-1,0,-2,-3,-3
278641596486,0,-2,-1,-1,-2,-3,-3,0
278641601762,-1,-2,-1,-3,-2,-5,-4,-6
278641601762,0,-2,-1,-1,1,0,-2,-7
278641618718,-1,1,-2,0,0,-1,3,4
278641618718,0,-1,0,1,-1,0,3,-2
278641620204,-1,-2,-2,0,-1,-2,-3,-2
278641620204,1,0,-1,0,-2,-2,0,0
278641632955,-2,1,-1,-1,-1,-3,-1,-3
278641632955,-2,-2,-1,-2,-1,0,-1,-2
278641639397,0,-1,-2,-2,-2,2,-9,-9
278641639397,2,0,1,0,-1,2,8,13
278641654956,-3,-1,-2,0,0,-1,0,1
278641654956,0,-1,-1,0,-3,0,-3,1
278641669302,-1,-1,-1,-3,0,0,-7,-6
278641669302,-2,-3,-3,-3,-3,0,0,-5
278641685656,-1,-3,-1,-2,-1,-2,-1,-5
278641685656,0,1,0,0,1,3,0,9
278641687242,-1,0,-2,1,2,2,2,0
278641687242,-1,-2,0,-1,-2,-6,-6,-5
278641692570,-1,0,-2,0,-4,-3,-3,0
278641692570,-3,-1,-2,-2,-2,1,5,-9
278641699426,2,0,0,0,-2,0,-4,9
278641699426,0,2,2,1,0,0,0,4
278641715003,-1,-4,-2,-1,1,1,1,-3
278641715003,-2,-1,-1,-3,-2,1,-2,-3
278641722005,-1,-3,0,0,0,-1,-2,-1
278641722005,-1,-1,0,-2,0,-2,6,5
278641738093,0,2,2,-2,-3,0,3,12
278641738093,-3,-1,-3,-2,-1,-3,-7,-19
278641739812,0,-1,-1,1,-1,-1,2,7
278641739812,-3,-3,-3,-1,-4,-1,-1,-7
278641752918,0,1,0,1,-1,0,-2,-5
278641752918,1,-1,0,-1,-1,-1,3,1
278641759214,-1,1,-1,-1,-1,0,-3,-4
278641759214,-2,-2,-4,-4,-2,-1,-7,-6
278641774946,2,-1,-1,-2,0,-2,5,11
278641774946,1,-1,-1,0,1,1,2,3
278641789401,-2,-3,1,0,2,0,-2,-5
278641789401,-1,-1,0,-1,3,0,-1,2
278641805613,1,0,-2,-3,0,-1,-4,-5
278641805613,-1,0,0,-1,-3,-2,-4,2
278641807168,-2,-3,-1,-1,-1,0,10,1
278641807168,-1,-1,-1,1,-1,0,-2,-4
278641812483,-3,-3,-2,0,-1,-2,1,-2
278641812483,0,1,1,0,0,-3,-3,4
278641826763,-1,1,-1,-1,-4,-5,-7,-9
278641826763,1,-2,0,1,-1,1,-1,0
278641843094,-1,-3,0,0,0,0,3,-5
278641843094,-1,-3,-2,-1,-2,-2,-3,11
278641844694,0,0,-1,-1,-1,-3,0,-12
278641844694,-3,1,-1,-2,1,-1,-4,-4
278641857805,-1,-2,-2,-2,-1,-1,-1,-6
278641857805,0,1,-1,-3,1,-1,1,18
278641873321,2,-1,0,-1,1,-1,0,2
278641873321,-2,-1,0,-1,-3,-2,-4,3
278641873875,-1,-1,-2,1,-2,-2,-6,-2
278641873875,-2,1,0,1,2,2,-3,-14
278641879274,-1,-2,-1,-3,-2,-4,2,5
278641879274,1,1,1,0,1,3,10,17
278641895116,-3,-2,-1,-2,-1,-1,-3,2
278641895116,-1,-2,-1,-1,0,-4,-3,3
278641909393,-1,-1,-1,-2,-1,-2,-2,-9
278641909393,-1,-1,-1,0,0,0,-3,-14
278641918220,1,0,0,0,-2,0,6,1
278641918220,0,-1,0,0,-2,-2,-3,-2
278641919718,0,-1,-2,-1,0,1,-4,6
278641919718,-3,-2,-4,-3,-3,-6,-3,-6
278641932480,-3,-2,0,0,1,-2,-7,0
278641932480,-3,-1,-1,0,1,3,1,-12
278641946734,-2,0,-1,0,-1,1,2,-4
278641946734,1,1,-1,-1,-2,-1,2,1
278641963194,-1,2,-1,0,-1,-1,-4,0
278641963194,-2,-2,-1,-2,-2,-3,-6,-8
278641964743,-1,-3,-1,-3,-3,-3,-2,11
278641964743,-1,-2,-2,-1,-2,-1,1,-6
278641985776,1,-1,0,0,-1,1,3,8
278641985776,-1,-1,0,0,-1,0,-1,2
278641987248,-2,-1,-1,1,1,0,4,5
278641987248,-1,-1,-2,0,-2,-2,-7,4
278641992468,-2,-1,-1,0,-2,-4,0,8
278641992468,-1,0,0,0,0,-2,-1,-20
278641999392,-2,-1,0,-1,-1,-2,4,-4
278641999392,2,-1,-1,0,2,-2,-7,0
278642015406,-1,-1,-2,-1,0,-1,3,-2
278642015406,1,0,-1,-1,-2,1,0,5
278642030715,0,-2,0,-1,-1,2,-1,-11
278642030715,0,-2,1,-1,-1,1,1,-5
278642038225,-1,0,-3,-3,-3,0,-4,-6
278642038225,-1,-1,-3,-3,-3,-3,-3,-4
278642039778,2,0,0,2,2,4,6,6
278642039778,-4,-4,-1,2,1,1,-3,-7
278642052239,0,-1,-2,-1,0,-2,0,1
278642052239,0,0,-1,0,0,-2,3,3
278642068243,-1,0,-2,-2,-1,-1,-1,-3
278642068243,0,-1,-3,-1,-3,-3,-2,0
278642076188,-2,-2,-1,0,0,0,-4,-6
278642076188,-1,-1,0,-1,-1,-3,-3,-5
278642083252,-1,-1,1,-2,-2,-2,0,-3
278642083252,1,-3,0,-1,-1,0,-3,6
278642097794,-3,0,-1,-2,0,-1,-4,-8
278642097794,2,0,-1,-2,-2,2,4,6
278642106436,2,0,0,0,-2,1,1,15
278642106436,-2,2,-2,-2,-1,2,0,-2
278642120618,-1,0,-3,0,3,1,-4,-3
278642120618,-1,-1,-1,1,-3,-3,-4,-1
278642122172,-3,-2,-1,-1,-3,-5,-7,-4
278642122172,-3,-1,-1,-2,-2,-2,-1,-12
278642136132,-1,0,0,0,1,1,0,-9
278642136132,0,-2,0,1,3,5,20,15
278642150798,-1,-2,-2,-1,-2,-3,-15,-7
278642150798,0,-2,-1,-1,0,-5,2,7
278642159481,-1,-2,0,-2,-2,-2,-1,-7
278642159481,1,-1,0,-3,-2,-3,-4,-2
278642161083,-1,-1,-1,-1,-2,1,1,3
278642161083,0,-1,-1,0,0,0,0,-1
278642171797,3,0,0,0,-1,-1,-2,4
278642171797,-3,-4,-2,-3,1,1,-6,-12
278642188236,-1,0,-1,-2,-1,1,0,8
278642188236,-1,0,1,-1,-1,0,-2,-3
278642195324,1,0,-1,-3,-2,-2,-1,3
278642195324,-2,-1,-2,-1,-2,-5,-6,-1
