timestamp,emg1,emg2,emg3,emg4,emg5,emg6,emg7,emg8
278561229476,-2,0,-1,-2,0,1,0,0
278561229476,1,0,-2,-1,-2,-2,-1,1
278561230288,0,-1,0,-1,-3,-2,-2,-3
278561230288,0,-1,-2,-1,-2,-1,-2,-3
278561234238,1,-2,-1,0,-1,1,0,-1
278561234238,-2,0,-2,0,0,0,1,-1
278561235846,0,-2,-2,1,-2,-1,-1,0
278561235846,-1,-1,-1,-2,-2,-2,-1,-1
278561239998,-1,-1,-2,0,0,1,-2,-2
278561239998,-1,-2,-1,-2,-1,-1,0,0
278561248708,-1,0,-1,0,-1,0,-1,-1
278561248708,0,0,0,-1,0,0,-2,0
278561263919,-1,0,-3,1,0,-3,-2,-1
278561263919,-1,0,0,1,1,-2,0,0
278561279609,-1,-2,0,-1,-1,-3,-2,-1
278561279609,-1,-2,-1,-1,-2,-2,-2,-1
278561281841,0,-1,0,-2,-3,1,0,0
278561281841,1,-1,-1,-2,-2,3,0,0
278561294903,1,-2,-2,-3,-1,-1,1,-2
278561294903,-1,-3,-2,1,1,-2,-1,-1
278561301635,0,-1,1,0,0,-2,0,-1
278561301635,-2,-2,-1,2,-1,-1,-2,-1
278561348081,-1,0,-2,-4,-1,0,-2,-2
278561348081,1,0,-1,-1,-2,-1,-1,0
278561348935,-2,-2,-2,0,-1,1,0,0
278561348935,-2,0,1,2,-2,0,0,-3
278561349726,-3,0,1,0,0,-1,1,0
278561349726,0,0,-3,-3,-1,-3,-4,-2
278561352995,0,0,-1,-2,-2,-3,-1,0
278561352995,0,-1,-1,0,-1,-5,-1,1
278561359798,0,-1,-1,-4,-1,-4,-1,-3
278561359798,-2,-2,-1,-1,0,-1,2,-1
278561367376,1,-1,-1,-1,-1,1,0,-1
278561367376,0,-1,-1,0,-1,4,-1,-2
278561376391,0,1,-1,2,0,0,-1,0
278561376391,-3,1,0,0,0,1,1,1
278561390717,0,0,1,-1,-2,0,-1,-2
278561390717,-1,-1,-1,1,-2,1,0,-1
278561397380,-2,-2,0,1,-1,-1,0,1
278561397380,0,-2,0,-3,1,-2,-2,0
278561413153,0,-1,-1,-2,1,-3,-1,-2
278561413153,0,-1,-1,-3,0,-3,-2,-1
278561419959,1,-1,-2,-1,-1,0,0,-1
278561419959,0,-1,0,0,-1,0,0,0
278561436300,-2,0,0,0,-1,0,0,-1
278561436300,-2,-1,-2,-2,-2,-3,0,0
278561437869,-1,-2,-2,-2,0,-1,-1,0
278561437869,0,0,-1,-1,-1,1,-1,-1
278561450617,-1,1,-1,-3,-1,-1,-1,-1
278561450617,-1,-2,-2,-1,-2,-1,-3,-3
278561457539,-2,0,-1,0,-2,-1,0,0
278561457539,-2,-1,-2,1,1,1,-2,-1
278561473218,-1,-2,-2,0,-2,-3,-3,1
278561473218,-2,-1,-2,0,-2,2,-1,1
278561479907,0,-1,-1,-1,0,0,-2,-3
278561479907,0,0,-1,1,-1,-2,1,-1
278561487519,-1,1,0,-1,-1,-3,-1,-2
278561487519,1,-1,-1,-3,0,-4,-3,0
278561496435,-1,-1,-2,-3,-1,0,-1,0
278561496435,0,0,-1,-1,-2,-2,-1,0
278561510708,-1,-5,-2,0,1,0,-1,-1
278561510708,0,0,0,-1,1,0,0,-1
278561517509,-1,-1,-1,1,0,0,-3,-1
278561517509,-1,0,0,0,-2,-1,-3,-3
278561533091,-2,0,-1,1,-3,-2,1,1
278561533091,-1,-1,-3,-1,-1,1,0,1
278561556944,1,-1,-3,-3,-1,-1,-2,-1
278561556944,-2,-2,0,-1,1,0,0,-1
278561557788,0,0,0,0,1,0,-1,0
278561557788,-1,-1,0,0,0,-1,-3,-1
278561559230,-2,-1,0,1,0,0,0,-2
278561559230,1,-1,-1,0,-1,-2,0,-1
278561570619,0,1,0,-1,-4,-2,-2,-1
278561570619,0,-1,-2,-2,-1,-3,0,-1
278561577571,-1,0,-2,0,-1,-2,-2,-2
278561577571,-1,-1,-1,-2,2,1,-1,-1
278561593632,0,-1,0,1,1,2,3,-1
278561593632,-1,-1,0,-3,0,2,0,-2
278561600011,-2,-1,-2,-1,-2,0,-2,-1
278561600011,-2,-1,-3,-2,-3,-2,0,0
278561607605,-1,-3,-2,-2,-2,0,-1,-1
278561607605,-1,1,-1,-1,-3,-3,-1,-1
278561616371,-1,-1,0,-1,1,-1,1,1
278561616371,1,-2,-2,-2,-1,1,-1,0
278561631356,-1,-2,-1,0,-1,-3,-1,-2
278561631356,-1,1,-1,-2,-2,-3,-2,-3
278561637550,0,-2,0,-1,1,-1,-3,0
278561637550,0,1,-1,0,2,-2,0,-1
278561653115,1,-1,-1,-3,-1,-3,1,-1
278561653115,-3,-1,-1,-1,0,0,-2,-2
278561659803,0,0,-2,-1,-2,-1,0,-2
278561659803,0,-1,0,0,-1,2,0,-1
278561667428,-3,-1,0,-1,0,3,0,-4
278561667428,-1,0,-3,0,0,-2,-3,0
278561676397,0,-1,0,-1,0,-2,0,0
278561676397,-1,0,-1,-1,0,-4,-2,-1
278561690689,-1,-1,-1,0,0,-1,1,-1
278561690689,-2,-2,1,-1,-2,-1,0,1
278561697445,-1,-1,-1,0,-3,0,-1,1
278561697445,-1,-1,-1,0,-2,0,-1,2
278561713744,-1,-2,-1,-1,0,-2,-3,0
278561713744,0,-1,-1,1,0,-3,-2,0
278561719881,-1,0,-1,-1,-1,0,0,-3
278561719881,0,0,-1,-1,-1,-1,-1,-1
278561727442,-1,1,-1,-1,0,0,-1,-1
278561727442,-1,-3,0,-1,-2,0,1,0
278561742421,-2,0,-1,-2,-2,-2,-1,-3
278561742421,-1,0,-2,-1,-2,-1,-2,0
278561749864,0,-1,-2,1,0,3,1,-1
278561749864,2,-1,-1,-2,-2,-1,0,-1
278561758944,-1,0,0,0,0,-4,-1,-1
278561758944,-1,-1,-1,-1,0,1,1,-1
278561773317,1,-2,-1,-2,0,-1,-3,1
278561773317,0,0,1,0,0,1,-2,-1
278561779949,-2,0,-2,-1,-3,-1,-3,-1
278561779949,0,-1,0,0,-1,-2,-1,-2
278561787467,-1,-3,-1,-1,-3,-1,0,1
278561787467,-2,-3,-2,0,1,-1,-2,-1
278561802389,-1,-1,-1,0,-1,1,0,1
278561802389,-2,1,0,-2,-2,-4,-2,-2
278561809994,-2,0,0,-3,-1,-3,0,-2
278561809994,-1,-1,0,0,1,-1,-1,-1
278561818858,0,-1,-1,1,0,0,-1,-1
278561818858,-2,-1,-1,-3,-2,-1,-1,-1
278561833626,0,0,0,1,0,-1,-3,-1
278561833626,-2,-1,-1,-3,-2,0,0,0
278561839952,-2,-1,-1,-3,-1,2,-2,-1
278561839952,1,-1,0,1,-2,-3,0,0
278561847344,0,0,-2,-1,-1,0,-1,0
278561847344,-1,-2,-2,-1,-1,-2,-2,-1
278561862491,1,0,0,-2,-1,0,-1,0
278561862491,-3,-1,-2,0,-2,2,0,0
278561869910,-2,0,-2,0,-2,-4,0,-1
278561869910,-2,-1,0,-1,-2,-1,-1,0
278561878893,0,0,-3,0,-1,-2,-1,0
278561878893,2,0,-1,-1,0,-2,-2,0
278561893169,-1,-2,-2,-2,0,-1,-2,-1
278561893169,3,0,-1,-1,-1,-1,-1,-1
278561899788,0,-2,0,-2,-2,-1,-1,-1
278561899788,-1,-1,0,-1,2,2,-1,-1
278561907450,-3,-1,1,-1,1,-2,-1,-2
278561907450,-1,0,-1,-3,0,-4,-1,0
278561922500,0,-1,-1,-1,1,0,0,0
278561922500,-1,-1,-1,0,-1,1,-1,0
278561929946,-1,-1,-1,-1,-2,0,-2,0
278561929946,-2,0,-1,1,-1,-1,-2,-2
278561938872,-2,0,0,1,-1,-4,-3,-1
278561938872,-2,0,0,-2,-1,-1,-2,-3
278561953537,-1,0,-1,0,0,3,1,-1
278561953537,-1,0,-2,-2,-3,-2,-1,-1
278561959987,0,-3,-2,-2,-1,1,1,-1
278561959987,0,-1,-2,-1,0,-2,-3,0
278561967513,1,1,0,-2,0,-1,-1,0
278561967513,-1,-2,-1,-3,-1,-1,2,-3
278561990709,0,0,0,-1,0,0,-2,-1
278561990709,-1,0,-1,-1,-2,-1,0,-1
278561991336,-1,-1,-2,1,-2,0,-2,-2
278561991336,0,-1,0,1,-1,2,0,-1
278561998876,0,0,-1,-1,-3,-4,-2,1
278561998876,0,-1,0,0,1,1,-1,-1
278562013177,0,-1,1,1,1,-1,-1,-1
278562013177,-1,-1,-2,0,0,-3,-2,-2
278562028220,-1,-1,-2,1,-4,-1,-3,-1
278562028220,-1,-3,-1,0,-3,0,-2,0
278562028903,0,-1,-1,0,-1,-1,2,0
278562028903,-3,-2,-2,0,0,2,-2,-1
278562042328,-1,-1,-1,-1,1,0,1,-1
278562042328,-1,0,1,0,0,2,-1,0
278562049992,-1,-2,-1,0,0,-1,-1,-1
278562049992,1,0,-1,-1,-1,-2,-2,-2
278562058867,-2,-2,-1,0,1,-3,0,-2
278562058867,0,0,0,-1,-3,-1,0,0
278562073058,-2,-2,-2,-1,-2,-1,-3,-1
278562073058,1,2,0,1,-1,2,0,-2
278562079950,-1,0,-1,0,0,-1,-1,-1
278562079950,1,0,-2,-1,-1,-1,-1,-1
278562087510,0,-1,-2,-2,-1,-2,-1,-1
278562087510,0,-1,0,-3,-2,-3,-2,-1
278562110709,-1,-1,-2,-1,0,0,-1,-2
278562110709,0,0,-1,-2,-1,-1,0,0
278562111351,-1,-2,-2,0,2,-1,0,-1
278562111351,0,0,-2,-2,2,-1,-2,0
278562118880,-1,-3,1,-1,-1,-1,-1,-1
278562118880,-2,-1,-3,-3,-2,-2,-1,-1
278562133243,0,1,0,-1,0,0,-3,-1
278562133243,-1,-1,0,1,-1,2,2,0
278562148163,-2,-1,0,0,-2,-1,-1,-1
278562148163,0,-3,1,1,0,-3,-2,-2
278562148916,-1,0,-2,-2,-3,-1,0,0
278562148916,-1,-1,-1,-1,0,-3,-2,-2
278562162515,0,0,-1,-2,0,-1,-2,0
278562162515,-1,-1,-3,-1,0,-1,-1,-1
278562169901,-1,0,-1,-1,1,-1,-1,-1
278562169901,-1,-2,-1,-3,-2,1,-1,0
278562178897,0,0,1,-1,-1,0,1,-1
278562178897,0,-1,0,0,0,0,-1,-2
278562193204,-2,1,-1,-2,-3,-2,-1,-2
278562193204,0,-1,0,-2,0,-1,-1,-2
278562199906,0,0,-2,-1,0,1,-2,-1
278562199906,-1,-1,0,0,1,-1,-1,-1
278562207449,0,0,-2,0,0,0,0,0
278562207449,-1,-2,-2,0,-2,-2,-1,1
278562230551,-2,1,-2,-1,0,-2,-4,-2
278562230551,-1,0,0,-1,1,-1,-1,-2
278562231495,-1,-1,-2,-2,-1,1,-1,0
278562231495,2,1,1,-2,0,0,0,0
278562238910,-1,-1,-2,-1,-2,-2,0,0
278562238910,-1,-1,0,-1,0,0,-1,-1
278562253117,-4,-1,-1,0,0,-1,-1,-1
278562253117,-3,0,-1,-1,0,1,0,-2
278562268004,-1,-3,-1,0,1,1,0,-2
278562268004,0,1,-2,-2,-3,-2,-2,-1
278562268828,1,-1,-1,-3,-1,-2,-1,-1
278562268828,-1,-1,-3,1,0,-1,-2,-1
278562282397,-2,1,1,0,-2,-2,-1,1
278562282397,0,-2,-1,-1,-2,-1,2,-1
278562289850,1,0,1,1,0,-3,-2,-2
278562289850,1,0,2,0,-1,0,-2,-3
278562298855,5,0,0,-1,0,0,0,-1
278562298855,-2,0,-1,0,-2,-2,-2,-1
278562313284,0,-1,0,-1,-3,0,-1,0
278562313284,-2,-3,-1,0,-1,1,1,-2
278562319851,-3,-2,-3,-2,-1,1,-1,-1
278562319851,4,-1,0,-2,-1,-3,-4,-1
278562335716,-2,1,1,0,1,-2,-2,-1
278562335716,0,-1,-2,-1,-1,-2,0,1
278562342394,-1,-1,-2,-1,0,0,0,-2
278562342394,-2,-1,-2,-1,1,1,1,0
278562358726,-3,0,1,0,0,1,0,-1
278562358726,-1,-1,-1,0,1,-1,-1,-1
278562360423,0,-1,0,-1,-2,-1,-1,0
278562360423,-3,0,-1,-2,-1,-2,-1,-1
278562373072,0,-1,-2,-1,-3,2,2,-3
278562373072,-3,0,-1,0,-2,-1,-2,0
278562387410,-1,0,0,-1,2,1,0,0
278562387410,0,-2,-1,-1,0,0,-1,2
278562395696,1,-2,0,-2,0,-2,-4,1
278562395696,-2,-2,-1,-3,-1,-2,0,-2
278562402411,-2,-1,-1,-1,-1,-2,0,-1
278562402411,-3,-1,-2,-1,-2,-1,-2,-2
278562426271,-2,-1,0,0,0,2,0,-3
278562426271,-1,1,-1,-2,-2,0,-2,1
278562427868,4,0,-1,-2,-3,-1,-2,-1
278562427868,-1,-1,-1,-1,-1,-1,2,0
278562432497,0,0,-2,-1,0,-1,1,-3
278562432497,-2,-2,-2,-1,0,-2,-3,-2
278562441383,-2,-1,1,0,-1,0,2,-3
278562441383,-2,1,-1,-1,-1,-1,-1,0
278562455568,-2,-2,0,-1,-1,0,0,-1
278562455568,1,-2,-2,1,0,-1,0,0
278562462509,-4,-4,-4,-1,-2,-2,-4,-5
278562462509,11,7,0,-2,0,-2,-2,1
278562478881,-6,-3,-1,-2,-1,-2,0,2
278562478881,-4,-1,1,0,0,-2,-1,1
278562480339,0,-2,2,0,1,-1,1,-10
278562480339,-3,-3,2,0,-1,0,-1,1
278562492570,3,0,-4,-1,-2,1,2,-1
278562492570,1,0,-3,-2,0,2,-1,-3
278562501373,-11,-5,-3,-1,-1,-3,-3,-1
278562501373,4,-2,-2,-1,0,-1,-2,-2
278562515511,5,0,-1,-1,0,-1,-1,4
278562515511,-3,0,-1,-2,-2,0,0,-3
278562530075,0,0,-1,0,0,2,-1,1
278562530075,-8,-4,0,1,-1,-2,-3,-4
278562546356,-2,-5,-1,-1,-1,-4,0,1
278562546356,3,5,0,-3,-1,-1,0,3
278562547849,0,-1,-1,-1,-1,-2,-2,5
278562547849,-5,-2,-2,-1,-1,1,0,-1
278562552326,2,2,-1,0,-1,-2,2,-6
278562552326,5,0,1,1,0,5,0,3
278562561406,0,-6,-1,-2,-3,-6,-4,4
278562561406,-5,-1,-1,-1,-3,-2,-1,-6
278562575742,-3,0,0,2,0,0,-3,-1
278562575742,1,1,0,2,1,1,3,-2
278562582518,4,1,1,-2,0,3,-2,3
278562582518,-3,-12,-2,-3,0,-7,-5,-6
278562598919,-6,4,-5,-1,-2,1,4,1
278562598919,1,7,-1,1,-2,-2,-7,-9
278562600360,5,6,4,2,0,1,0,-3
278562600360,3,0,2,1,1,7,12,16
278562612381,-16,-19,-7,-9,-7,-15,-11,-2
278562612381,12,4,1,2,-1,2,1,0
278562621401,2,2,-3,-3,-3,-1,-3,-3
278562621401,-12,-9,1,0,-1,9,0,-14
278562635666,-2,4,0,-1,-4,-3,-9,3
278562635666,4,-8,-10,-12,-9,-33,-18,-5
278562642399,-22,-17,-8,-1,1,-6,3,-7
278562642399,-2,19,5,2,4,0,4,8
278562659205,3,-10,-3,-1,1,6,4,-1
278562659205,3,6,5,3,3,6,3,-4
278562666369,10,3,2,1,0,3,-1,-2
278562666369,1,-2,-4,-2,-3,-7,-2,3
278562672532,-1,9,4,2,1,1,-1,-3
278562672532,-2,-4,0,-2,-2,1,3,3
278562681361,-2,1,-2,-1,-4,-2,-2,2
278562681361,-1,-2,-4,0,-2,-1,-1,-1
278562703881,7,6,2,-1,-1,-2,0,-3
278562703881,-7,-6,-3,0,-1,3,0,2
278562705347,-3,-2,1,-3,1,3,0,1
278562705347,1,2,-1,-3,-1,-2,-6,-5
278562718252,4,-2,0,1,0,2,1,0
278562718252,-8,-5,-2,-1,-1,1,2,-1
278562724896,1,3,1,0,2,0,1,2
278562724896,4,-1,-1,-2,-2,-2,-3,-3
278562741335,-1,0,0,-2,1,-3,1,-2
278562741335,-5,-4,1,2,-1,2,3,1
278562742874,2,1,-1,0,-1,-1,-1,0
278562742874,0,-2,-2,-2,-1,-3,-2,-2
278562755570,-2,-1,1,-2,1,4,0,1
278562755570,-3,1,1,-1,-1,-2,0,-1
278562762577,-1,-1,0,-1,-1,1,-1,1
278562762577,0,-2,-2,0,-3,-1,-1,-3
278562779157,-1,0,-1,1,-2,0,-3,-3
278562779157,0,-1,-2,-1,-2,1,-2,0
278562786361,-1,-1,-2,-1,-2,0,1,0
278562786361,-1,0,-2,-2,-2,1,-2,1
278562792530,1,0,-1,0,-1,1,2,-1
278562792530,-2,-2,-1,-1,1,1,0,-3
278562801357,0,-1,-1,0,-3,-5,-2,-1
278562801357,-1,0,-1,0,2,3,0,-2
278562824282,-1,-1,-1,-1,-4,-6,-1,1
278562824282,-3,0,-3,-1,0,0,1,1
278562825830,-2,1,-1,-2,0,0,1,0
278562825830,1,2,1,-1,-2,-2,-1,-1
278562838214,-1,-1,0,0,1,4,1,-2
278562838214,-1,-4,-4,-1,-2,-2,1,0
278562844864,-1,-1,0,0,-2,-1,0,-2
278562844864,1,-3,-2,-1,-3,-3,-3,1
278562861364,0,-1,-1,1,0,-2,-2,-1
278562861364,-1,-1,0,0,0,-1,0,-1
278562862900,0,0,-1,0,0,-1,1,1
278562862900,-2,-1,1,-2,-1,-3,-3,-1
278562875629,-1,0,-2,-4,-2,0,-1,-1
278562875629,-2,-1,1,1,0,2,-1,-1
278562882501,0,0,-1,0,-3,-2,0,0
278562882501,0,-2,0,-1,0,-1,0,-1
278562906346,0,0,1,-1,1,0,-1,0
278562906346,0,-1,-2,-3,-2,0,0,0
278562907860,-1,-1,-1,0,0,2,-3,-4
278562907860,-2,-2,0,-1,0,-1,-4,-3
278562921319,1,0,-2,-3,-3,-2,0,-6
278562921319,2,1,-2,-2,0,2,7,13
278562922862,0,0,0,-1,1,-3,-1,-3
278562922862,-1,-3,-3,0,-3,-1,-1,2
278562943661,-4,-2,-1,0,-1,-2,-5,-14
278562943661,0,1,-1,-2,-3,-1,-1,0
278562945311,-1,-1,-1,-1,0,0,-2,-2
278562945311,-4,-1,-1,-1,0,2,7,-3
278562958064,1,-1,0,0,-2,-2,1,2
278562958064,-2,-3,-1,-1,-3,-3,-3,-11
278562965064,1,1,-1,1,-2,-2,-1,12
278562965064,-1,-2,-3,-1,-1,-2,-5,-4
278562981715,-1,-2,-3,-2,-2,-5,-1,2
278562981715,-5,-1,0,-1,-1,-2,-2,5
278562983297,-3,-2,-1,-3,-1,-1,-3,-4
278562983297,-1,-1,0,-2,0,-2,-1,-11
278562995701,4,0,1,0,2,2,8,22
278562995701,-1,-1,0,1,2,2,1,-9
278563002501,-2,-2,-2,0,-1,-1,-1,2
278563002501,-1,1,-1,-1,-4,-3,-4,3
278563018196,-1,-1,-2,2,-2,-2,-4,-6
278563018196,-2,0,-1,0,-1,-4,-4,-9
278563032482,-2,-1,-1,-1,-2,-3,1,-10
278563032482,2,0,-1,0,2,1,6,14
278563041378,0,-1,-1,-2,1,1,-2,-1
278563041378,-2,-1,-1,0,1,-1,-1,4
278563042856,-2,0,-1,-2,-1,-1,-3,-9
278563042856,0,-2,-2,-2,-1,-5,-4,-8
278563055603,-1,0,0,-1,1,0,3,10
278563055603,0,0,0,1,-2,5,-2,-1
278563062574,-2,-1,-1,-2,-3,0,1,-1
278563062574,-1,-1,-2,0,-2,0,-3,-7
278563078179,-2,0,0,0,-4,0,-3,-5
278563078179,1,1,-2,0,-1,-4,-3,-4
278563084984,2,0,1,1,-1,-1,2,9
278563084984,-2,0,-1,0,1,0,-1,1
278563101196,-2,-1,-2,0,-2,-3,0,-6
278563101196,-1,-2,0,-2,-2,1,0,1
278563102825,0,-2,-2,0,1,2,1,0
278563102825,-1,0,-1,-3,-2,0,-3,2
278563115782,-2,-3,1,-1,-2,-1,0,-4
278563115782,-2,-2,-2,-2,0,-3,-2,-4
278563122425,1,0,-1,-1,-2,-1,1,-1
278563122425,-1,-1,0,1,0,0,1,1
278563138225,-1,-1,-3,-1,1,0,-3,-1
278563138225,-2,-1,1,-1,-2,-1,2,2
278563144858,-1,-1,0,-2,0,1,0,-2
278563144858,-2,0,-1,-2,-2,0,0,1
278563161337,-2,-2,-1,-1,-1,-1,-3,-3
278563161337,-1,-1,-1,0,2,-1,-1,2
278563162837,-1,0,0,0,0,0,0,0
278563162837,0,0,-2,-2,-2,0,1,0
278563175520,-1,0,-1,-1,-1,0,-2,-6
278563175520,0,-2,-1,-3,0,0,-2,-2
278563182399,-2,-1,-2,0,-3,-5,-6,-7
278563182399,1,0,0,-3,-1,0,6,14
278563198210,1,0,-1,1,2,-1,-2,2
278563198210,0,0,-1,-2,1,-1,-1,-5
278563222089,-2,-2,-1,-2,0,-2,-1,-5
278563222089,-2,-3,-1,1,1,0,-2,-8
278563222670,-2,-2,-2,-3,-1,-1,0,0
278563222670,-3,-1,-2,0,0,-1,-3,0
278563224353,1,-1,-2,-3,0,0,1,1
278563224353,-1,1,-2,0,-3,0,0,-2
278563235583,-1,0,-1,0,-1,2,0,0
278563235583,-2,-2,-1,1,0,-1,1,3
278563242399,-2,-1,0,-1,1,-2,-2,-3
278563242399,0,-1,-2,-1,0,-4,-1,1
278563258543,-1,-1,-1,0,1,-2,-1,-1
278563258543,-1,0,1,-2,-4,-2,-1,-1
278563264944,-1,0,0,-1,-1,1,1,3
278563264944,-1,-1,0,0,0,-1,-1,-3
278563281416,-1,-2,-1,-2,-2,-1,-3,-5
278563281416,1,-3,-2,-4,-2,-2,2,4
278563282820,-3,-1,-1,1,-2,-1,0,-1
278563282820,-1,-1,0,-2,0,0,-3,-5
278563295567,0,-2,0,0,0,-1,0,2
278563295567,0,1,-2,0,0,-1,-3,-5
278563302404,0,0,0,-2,-2,1,0,5
278563302404,-2,0,0,-1,-1,0,-1,-4
278563318200,-2,-1,0,-1,0,0,-2,1
278563318200,2,0,0,0,-1,0,0,-5
278563325064,-1,-1,-1,1,-2,-1,2,9
278563325064,1,0,-2,-2,-1,1,-1,-6
278563341716,1,0,-1,-1,0,0,2,7
278563341716,-2,-2,-1,0,-3,-1,-2,-2
278563343296,-2,-2,-2,-2,-2,-3,-5,-3
278563343296,-3,-2,0,0,1,2,-1,-4
278563354973,-1,0,-2,0,0,-1,-2,-3
278563354973,-2,-1,1,-1,-1,-1,-2,-3
278563364509,1,0,0,1,1,3,1,0
278563364509,0,-1,-2,1,-1,-4,-1,4
278563378518,-3,-1,-2,1,-2,-4,-1,-4
278563378518,0,1,0,-1,1,-3,-1,2
278563384778,1,-2,0,-1,-2,-2,-2,-5
278563384778,-1,-2,-1,-2,-1,-3,-3,-3
278563401236,0,0,-2,-1,-1,-2,5,2
278563401236,-1,1,0,-2,0,-2,0,0
278563402785,-1,-1,-1,-2,-1,0,-3,-1
278563402785,-1,-3,1,-1,-2,1,0,0
278563414985,-1,-1,1,-1,-2,1,-3,-3
278563414985,-1,-2,-1,0,1,3,1,-1
278563423835,0,-1,-1,-1,0,1,0,0
278563423835,0,0,-1,-2,0,-1,-3,-2
278563438064,0,-1,-1,-1,-1,-3,-2,-1
278563438064,-2,-2,-1,-2,-2,0,-1,-1
278563444879,-1,-2,0,-1,-2,-3,0,-2
278563444879,-1,-1,-1,0,-1,-3,0,-2
278563461220,-2,-1,-1,-3,-2,-5,-3,-6
278563461220,-1,-2,-2,-1,-1,0,1,4
278563462917,1,0,0,0,3,2,3,3
278563462917,-4,1,0,-1,-1,0,1,3
278563474935,-1,0,-2,-1,-1,1,-4,-2
278563474935,-3,-1,-1,-2,-3,0,1,-2
278563483883,-2,-2,-1,-1,-4,-2,-1,-6
278563483883,2,-2,0,1,3,3,2,1
278563498710,0,0,0,-2,-1,-2,-1,0
278563498710,-2,-1,-1,0,-3,-3,-3,-1
278563505030,-1,-1,-1,-2,-2,-3,-3,-3
278563505030,-3,0,0,0,-3,0,-3,-1
278563522098,1,0,1,-1,-2,1,1,1
278563522098,-1,-1,0,0,-2,-3,-1,-1
278563523582,0,1,0,-1,1,1,-1,1
278563523582,0,-1,0,0,-2,-3,-3,-4
278563535280,-2,-2,-4,-2,1,-1,-1,1
278563535280,1,0,0,1,0,0,-2,-2
278563543835,0,-2,0,-1,0,-3,-4,-4
278563543835,0,-1,-1,-1,-1,1,2,8
278563558174,-1,0,-3,2,1,-1,-1,-2
278563558174,-1,0,-1,-2,-2,-2,-1,-1
278563564857,-1,-2,-2,-1,0,1,0,1
278563564857,-1,0,0,-3,-1,3,0,-3
278563581845,0,-1,-2,-2,-3,-4,-2,-1
278563581845,-1,-2,-3,0,-1,0,0,2
278563583443,0,0,-1,0,-1,-2,0,-1
278563583443,-2,-3,-2,-1,-2,-1,1,-3
278563594915,-1,-2,-1,0,1,1,2,7
278563594915,0,1,-1,0,0,2,-2,-2
278563603899,0,-1,-3,-1,-2,-3,-3,0
278563603899,-2,-2,-2,0,-1,-5,-3,-7
278563618078,-2,-3,-1,1,0,2,1,0
278563618078,-1,-1,-1,-2,1,1,0,2
278563624929,-2,0,-1,0,0,0,1,2
278563624929,0,-1,-1,-2,-4,-6,-6,-3
278563640948,1,-1,-1,-3,-3,-2,-1,-2
278563640948,-1,0,-1,0,0,0,0,1
278563657031,-1,-1,0,1,1,0,-1,-1
278563657031,-2,0,-1,-2,3,0,1,0
278563657814,-1,-1,1,0,1,0,-1,0
278563657814,-2,-3,-1,0,-3,-2,-1,0
278563663830,0,-1,-1,-1,-3,-2,-2,-1
278563663830,-1,0,-2,0,-1,-1,0,-2
278563678168,0,-1,-2,-3,-3,-2,-2,-2
278563678168,-2,-2,-1,-1,0,0,0,-1
278563692494,-3,-2,-1,-1,-2,2,0,-3
278563692494,1,-1,-1,0,0,-1,3,5
278563700614,-2,-1,-1,-2,0,-3,1,-3
278563700614,-1,-2,-1,-1,-1,-1,0,0
278563707552,-1,0,-1,-2,-2,-2,-3,-2
278563707552,0,-2,-1,-3,-1,0,0,-3
278563714954,0,-2,-1,-1,0,1,2,-2
278563714954,0,0,-2,0,-1,-2,-1,4
278563723889,-2,-1,-2,0,0,-3,1,-2
278563723889,-2,-1,-2,1,1,2,-1,0
278563738053,-1,-1,-1,0,-1,0,-1,-2
278563738053,0,-1,0,-2,-2,0,-2,-3
278563744963,-1,0,-1,0,0,-1,-2,0
278563744963,1,0,-1,0,-2,-1,0,2
278563760748,-3,-1,0,0,0,2,-1,-2
278563760748,0,-2,-1,-2,0,-2,-1,-1
278563775549,0,-2,-1,-2,-3,-3,2,0
278563775549,-1,-2,1,0,-1,-3,-2,0
278563776352,-3,-1,0,0,-1,0,-2,-2
278563776352,1,-2,-2,-1,0,-2,-2,0
278563783888,0,0,-1,-4,0,-1,0,-1
278563783888,-3,0,-2,0,0,-1,-4,-1
278563798211,1,0,1,-1,-1,-4,0,-6
278563798211,1,-1,-2,-1,-4,-1,3,8
278563812403,-1,1,0,-1,-3,-3,-1,-2
278563812403,0,1,0,1,0,3,-1,0
278563820629,-1,0,-3,0,-1,-4,-4,0
278563820629,-2,0,-1,0,0,-1,-3,-5
278563827508,-1,-2,-2,0,0,0,-2,1
278563827508,0,-3,-1,-3,0,0,-1,-2
278563843760,-3,-1,0,0,0,-1,0,2
278563843760,1,-1,-1,-1,0,-2,2,-3
278563845354,-1,0,-2,-2,-3,-1,-1,1
278563845354,-3,-2,-1,0,0,1,-2,-4
278563858062,-1,-1,0,-1,0,-1,-2,-2
278563858062,-2,-2,-1,-2,-1,0,1,1
278563864865,-1,-1,1,1,-2,-1,-1,-1
278563864865,2,1,0,-2,0,-2,-2,-1
278563880578,2,0,-1,-1,-2,-2,-2,-1
278563880578,-1,0,-1,2,0,-2,-2,0
278563894865,-1,-2,-2,0,1,-1,0,-1
278563894865,-1,-1,-2,-1,-4,-1,-1,-1
278563903733,-2,-1,-2,-2,-1,2,-1,-1
278563903733,-2,-1,0,-2,-2,-1,1,5
278563905310,0,-1,0,1,-2,1,0,-2
278563905310,1,-2,0,0,0,1,0,3
278563918718,-1,0,-4,-1,-1,0,-2,1
278563918718,-1,-1,-1,-2,-2,-3,-3,-5
278563932363,-1,0,-1,-2,0,-2,-2,-2
278563932363,-1,1,-2,-2,-1,-1,2,1
278563940545,-1,-2,-2,-2,-1,0,0,-2
278563940545,-2,-1,-1,-3,0,-1,-3,-4
278563947302,-1,-1,-1,-1,-2,-2,-2,0
278563947302,-2,-2,-3,-2,-1,-2,-2,-1
278563963683,-2,-2,-1,0,-1,-1,-4,-1
278563963683,-1,-1,0,-2,-2,0,4,-3
278563965302,0,-2,-2,-1,0,1,-2,3
278563965302,-2,0,-1,-1,-2,-3,-1,-3
278563978063,-1,-1,-1,-1,0,3,-1,-1
278563978063,0,0,0,-2,2,1,-3,-1
278563984832,0,-2,-2,-2,-2,-3,-1,-3
278563984832,0,-1,-1,-2,0,-3,-3,1
278564000508,1,0,0,-1,0,-1,-1,-2
278564000508,0,-1,-1,-1,-1,1,0,-3
278564007383,-1,-1,0,0,-2,-3,5,10
278564007383,2,-2,-2,0,-2,-3,1,-2
278564023954,-1,-2,-2,1,-1,-3,-2,0
278564023954,-2,-2,0,0,0,0,-3,-1
278564025383,0,-1,-2,-1,2,0,-2,-4
278564025383,-2,-2,-1,-3,-4,-1,-2,0
278564038119,-2,0,0,0,2,1,3,0
278564038119,-1,0,-3,3,-1,2,-1,0
278564052371,-1,1,0,-2,-2,-2,-1,-2
278564052371,-2,-1,-1,-2,1,0,1,0
278564060702,0,1,-2,0,-3,-1,0,-2
278564060702,0,1,-1,-3,-1,-2,-1,0
278564067350,-1,0,-1,-2,1,-2,-2,-3
278564067350,1,-1,0,0,2,0,2,1
278564091322,-1,0,0,-2,-1,-2,-1,1
278564091322,0,-2,-1,1,-1,-2,-2,-1
278564092866,0,-2,-1,1,-1,0,-2,-3
278564092866,0,0,-2,0,0,-1,0,-3
278564098161,0,-3,-2,1,1,-1,0,0
278564098161,-3,1,0,-1,-2,-6,-1,0
278564104933,-2,0,1,-2,-1,-1,-3,-2
278564104933,-1,-1,0,0,-1,0,0,-2
278564120440,0,0,1,-1,0,-2,1,0
278564120440,-1,-1,-2,0,2,2,-1,-2
278564128859,0,0,-3,0,-3,-3,-3,-3
278564128859,-1,-2,-2,1,-3,-1,-3,0
278564143745,0,-2,0,-1,-1,1,-1,-2
278564143745,-1,-2,0,0,-2,-2,1,-3
278564145368,0,-1,0,0,0,-2,-1,1
278564145368,-1,0,0,-1,-2,-2,-1,-2
278564158081,1,-2,0,-2,-2,-2,0,0
278564158081,0,-1,0,-1,1,0,-1,0
278564172409,0,-3,-1,-1,1,1,1,-2
278564172409,-1,1,-1,-2,-3,-1,-2,-1
278564180722,-1,0,-2,-1,-3,-1,-1,1
278564180722,0,0,-1,-1,-2,0,-2,-2
278564187470,-1,-1,-1,-1,-2,-2,-1,-3
278564187470,-1,0,0,0,1,2,1,7
278564211703,-1,-2,-1,-2,-3,-2,-2,1
278564211703,-1,-1,0,-3,-1,-2,-2,-2
278564213274,-1,-2,-1,-1,-1,-2,-1,-1
278564213274,-1,0,0,-2,0,-2,-3,-5
278564218067,-1,1,0,-1,0,-3,1,-2
278564218067,0,-1,-2,1,-1,2,2,8
278564224825,-2,-1,0,1,3,3,2,-2
278564224825,-5,0,-2,-2,-4,-11,-7,-4
278564241182,-1,-1,-1,1,0,-4,0,0
278564241182,5,-1,0,-1,-4,-3,-2,-1
278564248834,-4,-1,-1,1,0,-1,0,2
278564248834,3,-2,-1,-1,-2,0,-1,-2
278564263777,0,4,-2,-1,-1,-1,-3,-1
278564263777,-4,-2,-1,-2,1,-1,2,-2
278564265332,1,-2,0,-1,0,0,3,0
278564265332,-2,-4,0,0,1,0,2,-1
278564278136,-3,-4,-1,-1,-1,-4,-2,-1
278564278136,-7,-5,-5,-3,-1,2,0,-1
278564285001,12,8,1,0,1,2,-1,0
278564285001,1,-5,-1,-1,-1,2,-2,-3
278564300521,-1,-2,-1,-1,-2,-1,-3,-1
278564300521,1,1,-3,1,-2,-2,-1,1
278564307258,-13,-7,-1,-5,-6,-7,-6,-5
278564307258,1,3,-1,-3,-1,-1,1,0
278564331351,6,0,-1,0,0,1,1,1
278564331351,1,3,1,1,0,-3,-1,-4
278564332794,0,-2,0,-1,-1,-2,-2,-1
278564332794,-10,5,0,0,1,6,5,-2
278564337288,-3,0,2,3,2,0,-10,-3
278564337288,11,6,-2,-2,-2,-5,-3,-1
278564352435,-9,-10,-8,-3,-2,0,-2,1
278564352435,2,0,2,4,1,4,3,3
278564368667,-1,2,-1,-1,0,9,5,4
278564368667,-23,-21,-1,2,-1,11,4,-4
278564370256,14,4,-2,-1,-7,-36,-8,-6
278564370256,-2,-8,-1,-2,-1,0,1,1
278564391433,-1,4,1,2,-2,-3,-1,-4
278564391433,6,6,3,0,1,1,-2,1
278564392866,-8,-6,-5,-8,-4,9,0,-5
278564392866,2,1,-1,0,-3,-4,-1,-1
278564397378,3,-3,-1,-3,-2,-4,0,2
278564397378,-3,-1,-1,1,-1,-6,-5,-5
278564406417,-2,-1,0,2,3,5,3,2
278564406417,4,5,-2,0,-1,-3,-3,1
278564420630,-6,-6,-1,-3,1,3,1,-2
278564420630,0,0,-2,-1,-3,-2,-1,-1
278564427373,1,2,2,2,1,4,1,1
278564427373,-1,-2,-1,0,-1,0,-1,-1
278564450267,-2,-2,-2,-2,-1,-4,1,-1
278564450267,-1,2,-1,-3,-1,-2,-1,-2
278564459503,-2,1,0,0,0,4,-1,2
278564459503,-3,-4,-2,1,1,-2,-3,-5
278564460313,-1,-5,-3,-2,-2,-2,0,-7
278564460313,4,1,1,-1,0,-2,-1,6
278564466448,-1,0,0,0,2,5,0,-1
278564466448,-2,-3,-1,-2,-1,-2,-2,-1
278564488754,0,0,0,0,-1,-4,-2,-2
278564488754,-2,-1,-2,0,0,-2,-1,-3
278564490295,1,-3,-1,0,-1,1,4,0
278564490295,0,1,0,-1,-3,-3,-3,0
278564503171,-1,-1,0,0,-2,-3,0,1
278564503171,-1,-1,-1,-1,-2,0,-1,0
278564503823,-1,0,0,0,0,1,-2,-2
278564503823,-1,1,0,0,0,0,0,0
278564525558,-1,0,-2,-2,-2,-1,0,-1
278564525558,-2,-2,-1,-3,-1,-2,-3,-1
278564526324,1,0,-1,1,-1,2,0,0
278564526324,1,-1,-2,-2,-1,0,-1,1
278564541360,-2,-2,0,0,0,-3,-1,1
278564541360,-1,-2,-1,-3,-3,-2,2,0
278564547438,1,2,-1,-1,-1,-1,0,3
278564547438,-4,-2,-1,-2,-1,0,1,0
278564563858,-2,-2,-2,-1,-2,1,-2,1
278564563858,0,-1,0,-1,-2,0,-5,-5
278564569843,-2,-1,-1,-4,-2,-2,0,-3
278564569843,0,-1,-1,-3,-2,3,1,5
278564585452,0,1,-1,-1,-1,-9,-3,4
278564585452,-1,-1,-1,1,0,1,-1,0
278564586272,-2,-2,-1,1,0,-3,-5,-4
278564586272,-1,-2,-1,-2,-1,-4,-3,-7
278564609509,2,0,1,-1,0,3,0,0
278564609509,2,-1,0,-1,2,2,2,6
278564610315,-2,0,1,-1,0,0,0,-1
278564610315,0,-2,-2,-1,1,-1,1,-5
278564622390,-1,0,0,1,-1,1,-6,-3
278564622390,-1,-1,-4,0,-4,-3,3,0
278564629873,-2,-2,0,0,-2,1,-5,0
278564629873,-4,-1,-3,-3,-3,-4,-4,-12
278564646976,5,3,0,1,1,5,13,29
278564646976,-2,-2,-1,-2,-2,0,-5,-8
278564647874,-1,0,-2,0,0,1,-3,-1
278564647874,1,1,1,0,-2,-2,-4,2
278564661340,-3,-3,-1,-2,1,-1,-1,-10
278564661340,2,0,0,0,2,1,6,11
278564667504,-1,-1,-1,-3,-3,-3,-3,-3
278564667504,-2,-1,0,-3,-1,-3,-4,-4
278564682520,0,0,-1,2,0,2,-1,-12
278564682520,-1,-2,-1,1,-1,-3,-3,0
278564689845,-2,-1,-2,1,0,-2,-2,-5
278564689845,3,1,0,1,3,1,3,9
278564705703,-2,-1,-1,-2,-2,-3,0,-2
278564705703,1,0,-1,-3,0,-3,1,1
278564706289,2,-1,-2,-4,-3,-5,-1,-1
278564706289,-1,-2,-1,-1,-1,-1,-1,-6
278564728062,0,0,0,-1,-2,1,3,11
278564728062,-2,1,-1,-1,-3,-2,-4,-8
278564728893,-1,-2,0,0,-2,0,1,1
278564728893,-1,-3,-1,0,-2,-3,-6,-10
278564742337,2,0,-2,-2,2,6,8,9
278564742337,0,0,-2,0,0,-1,-3,-8
278564749844,-2,-1,1,-2,-1,-2,1,1
278564749844,-2,0,-1,-1,1,1,-3,-2
278564767041,-2,-2,0,-2,0,-2,-7,-11
278564767041,0,1,-1,-2,0,-1,1,16
278564767783,1,0,2,0,2,2,5,2
278564767783,-2,-1,0,-1,0,-1,0,5
278564781387,-1,-2,-2,-1,-4,-5,-6,-6
278564781387,-1,-1,-1,-2,-1,-1,-4,-4
278564787365,1,-1,-2,-2,-2,-4,0,-2
278564787365,-2,0,-2,-1,0,0,2,5
278564803887,-2,0,-1,-1,-2,-1,-3,-7
278564803887,0,-1,-1,1,-2,0,4,-1
278564809818,-1,-1,1,-1,-2,-1,-1,4
278564809818,-2,0,-2,-1,-2,-3,-4,-3
278564825640,-1,-1,-2,0,-2,1,-1,-4
278564825640,1,-2,1,-1,0,-2,-1,-1
278564826323,-2,-1,1,0,0,5,-1,1
278564826323,0,-2,-1,-1,-1,0,1,0
278564841319,-1,0,-1,-1,-2,-1,-3,-6
278564841319,-2,-2,-4,-2,-1,0,-5,-1
278564847282,-1,-1,-3,1,-2,-3,-1,-12
278564847282,3,0,1,0,-1,2,7,21
278564862303,-2,-2,0,-2,-1,1,-3,0
278564862303,-2,-1,-2,-2,-4,-2,-4,-4
278564869763,-2,-1,0,-1,0,-2,-4,0
278564869763,-1,0,-2,0,-1,-3,-2,-5
278564887087,-2,-1,-1,0,-1,-3,-1,-6
278564887087,-3,-2,0,-1,1,0,3,-1
278564887824,0,0,-3,-1,0,1,1,6
278564887824,-1,-3,-2,-2,-4,-1,-1,-3
278564901335,-2,-1,0,-1,-1,-2,-3,0
278564901335,-3,-2,-1,0,-1,-2,-4,-11
278564907365,4,2,-1,1,2,2,8,4
278564907365,0,0,-1,-1,0,-1,-1,-1
278564923834,-2,-1,-2,0,-1,3,-1,-1
278564923834,-2,-2,0,0,-2,-3,-3,-2
278564929880,-1,-2,-1,-2,1,2,-2,-3
278564929880,-1,-1,-2,0,0,-1,-2,-1
278564945461,-1,-2,-2,-1,0,-3,-1,-3
278564945461,0,2,1,1,0,-1,2,3
278564946320,-3,0,-3,0,-2,0,0,0
278564946320,1,-2,1,-1,0,1,0,-4
278564961352,0,-1,-1,-1,-3,-2,-4,-4
278564961352,0,-1,0,-1,0,-2,3,2
278564967458,-1,-1,-1,-2,-3,-4,1,1
278564967458,1,1,-1,-1,-1,-2,-3,-1
278564982536,-1,1,-1,-1,0,0,1,-2
278564982536,-1,-1,0,-1,1,1,-1,1
278564989905,-3,-1,-1,-1,1,-4,-4,-3
278564989905,-1,-2,-1,-3,-1,-1,-1,-1
278565005511,1,-2,0,-2,0,0,1,3
278565005511,-1,1,0,-1,-1,0,-3,-4
278565006287,-2,-1,-1,1,-2,0,1,-2
278565006287,-2,-2,-2,1,-2,-1,-1,0
278565021392,1,0,-1,0,-1,-1,0,2
278565021392,1,-2,-1,0,-1,1,-1,-2
278565027367,-3,-2,-2,0,-1,-3,-6,-4
278565027367,-3,-1,-1,0,2,-2,2,-2
278565043787,2,1,0,-2,2,2,7,19
278565043787,-1,-2,-2,-4,-2,-3,-2,-7
278565049895,1,-2,0,-2,-1,-1,-3,1
278565049895,-1,-2,-3,-2,-1,-2,-5,-4
278565065525,-3,-2,-2,-1,-3,-4,-3,-7
278565065525,0,0,1,-1,-1,1,-1,0
278565066236,-1,-2,-1,-1,-1,0,-1,-1
278565066236,-1,0,0,0,-2,1,1,-2
278565081306,-2,0,-2,1,-1,-1,-1,-5
278565081306,0,-2,-1,-1,0,-1,1,1
278565087534,-1,-1,-1,0,-1,1,0,-4
278565087534,-2,-2,0,-1,0,-1,-1,3
278565102297,0,-1,-1,0,-1,-1,-1,-1
278565102297,-1,0,0,2,1,1,-1,-2
278565109837,0,0,-1,-3,0,1,0,0
278565109837,-1,1,-1,-2,-2,0,2,-1
278565125620,-1,-1,0,-1,-2,-1,-3,-1
278565125620,0,0,0,1,-1,2,-1,2
278565126315,-1,0,1,0,-2,0,1,-1
278565126315,-1,0,0,-2,0,0,-3,2
278565141352,-2,-1,-2,-2,-3,-4,-3,-5
278565141352,0,-1,-1,0,1,-2,2,1
278565147475,-1,-1,-1,0,-2,0,-2,-2
278565147475,-2,-1,-1,-1,-3,-2,0,0
278565163805,-2,-2,0,-1,-2,-1,0,-1
278565163805,0,-1,0,-5,-3,-2,-3,0
278565170008,-1,-1,-1,0,-2,-4,-2,-1
278565170008,-2,-2,-2,0,0,0,1,-4
278565185504,1,-1,-2,0,2,2,0,-1
278565185504,-1,-1,-1,0,-2,-1,-1,-1
278565186249,1,0,-3,-3,-1,-2,-3,0
278565186249,-1,-1,-2,-2,-2,-1,1,-4
278565201266,-1,-1,-1,-1,0,-1,-2,-1
278565201266,-4,-1,0,-1,1,-1,-2,0
278565207309,0,0,1,-1,-2,-3,-1,-2
278565207309,0,0,-1,-1,-1,-1,-2,-3
278565222347,0,2,0,-1,-1,-1,-1,-4
278565222347,1,-3,-3,-2,-3,-2,0,1
278565229909,-1,-2,-1,0,-1,-2,-1,0
278565229909,-1,-1,0,0,0,1,0,0
278565245505,-1,-2,-1,1,-2,-2,0,-2
278565245505,0,-1,0,0,-2,-2,-2,0
278565246396,-1,-2,-2,0,0,-2,0,-1
278565246396,-1,-2,-1,0,0,-1,-1,1
278565261339,-3,0,0,-2,-1,-2,-1,2
278565261339,-1,-1,0,0,1,2,0,-2
278565267433,0,-1,0,-1,-1,-3,-7,-4
278565267433,-1,0,-2,-1,0,-1,3,-1
278565283768,-2,-1,0,-1,-2,0,2,4
278565283768,-1,-1,-2,0,-3,-1,-4,-3
278565289913,0,-1,1,-1,-1,2,0,-1
278565289913,0,-1,-2,-1,-1,1,-2,-2
278565305384,0,-1,-1,-1,-2,-1,-3,-5
278565305384,-1,-1,-2,-2,-2,-3,1,-2
278565321319,-1,-1,-1,0,0,-2,1,2
278565321319,-2,0,-1,1,1,-3,-3,-4
278565322810,-2,-2,-1,-1,-1,-2,-1,-2
278565322810,-1,0,-1,-2,-1,2,0,-4
278565327438,0,-1,-1,-1,0,4,1,2
278565327438,0,-2,0,-1,0,-1,2,1
278565351070,1,-1,0,-1,2,0,-4,-3
278565351070,-2,-2,-2,-1,0,-2,-3,-1
278565358079,-1,-1,-2,0,0,0,2,1
278565358079,0,0,0,-2,0,0,0,0
278565365547,-1,-1,-1,-1,0,0,1,0
278565365547,1,0,1,0,-1,-3,1,3
278565366299,-3,-1,-2,-1,-1,-2,-4,-7
278565366299,-1,0,-2,-2,-2,0,-1,2
278565381407,-1,-1,0,-1,-3,2,1,4
278565381407,-2,0,-1,0,-2,1,2,-1
278565387521,-1,-2,-1,-2,-3,-3,-1,0
278565387521,0,0,-1,-1,-2,-3,-2,-2
278565402445,-2,-1,1,0,1,-1,-1,-5
278565402445,-1,-2,-1,0,-1,-1,-1,0
278565409943,-2,0,-1,-1,-4,-6,-4,-2
278565409943,-2,-1,0,-3,-1,-2,-6,-8
278565425631,-1,-1,-1,-1,0,3,0,2
278565425631,1,0,0,-2,2,-2,2,8
278565426402,-1,1,-1,-1,-1,-2,-1,-2
278565426402,-1,1,0,-1,-1,-3,1,1
278565441855,-1,-1,-2,-2,-1,-2,0,-2
278565441855,1,-3,-1,-1,1,1,-4,-3
278565447426,1,-2,-1,1,-2,2,1,-1
278565447426,0,-1,-2,0,-1,3,2,-1
278565462325,-1,-1,1,-1,0,-2,-5,-3
278565462325,0,-1,-3,-3,-2,-1,0,-1
278565478089,0,-1,1,-1,1,1,1,-3
278565478089,-3,-2,0,1,0,-1,-1,-1
278565485544,-2,-1,-3,0,-1,-2,-1,-1
278565485544,-1,-1,2,-2,-1,-3,-3,-1
278565486276,-2,-1,-2,-2,0,2,1,2
278565486276,-1,0,-1,0,-3,-1,-1,-4
278565501370,0,0,0,-1,-1,-2,1,1
278565501370,0,-2,-2,-1,-4,0,0,-4
278565515596,-1,-1,0,-1,-1,-2,0,4
278565515596,1,-1,-1,-3,-2,-2,-2,1
278565522501,0,0,-1,0,0,0,-3,0
278565522501,-3,0,-1,0,1,2,1,-4
278565530068,-3,-2,-2,-3,0,0,-2,-2
278565530068,-2,-1,0,-1,0,2,0,3
278565553048,0,0,-2,0,0,3,0,-1
278565553048,-2,0,2,1,2,-1,-2,-5
278565553832,2,-2,-2,-1,1,-2,2,1
278565553832,-2,0,-2,-1,-2,-3,-3,-1
278565561395,-1,-2,-2,1,-2,0,-2,-1
278565561395,-1,-2,-2,0,0,-1,-1,-3
278565567414,1,0,-1,-1,1,3,3,5
278565567414,1,-2,-2,-1,2,-2,-3,-1
278565582456,0,-2,1,0,0,-1,2,-5
278565582456,-3,-2,-1,-1,-2,-3,-2,-2
278565598066,-1,-1,0,1,-3,-4,-2,-3
278565598066,0,-2,-1,-2,-3,-3,0,2
278565604911,-1,-1,-1,-1,-1,-1,-2,-3
278565604911,-2,1,-2,1,-2,-2,-1,2
278565621371,0,0,0,-1,-2,0,1,1
278565621371,0,0,0,0,-2,-2,-2,-1
278565622818,-2,-1,-1,0,-2,-4,0,-1
278565622818,0,-3,-1,-3,1,1,-2,-2
278565635595,-4,-1,0,0,1,1,-7,-6
278565635595,0,-2,-1,-2,-3,1,2,-4
278565642371,1,-2,0,-3,-1,1,4,13
278565642371,0,2,-1,0,-4,-3,-3,-6
278565649855,-3,0,-3,-2,-1,0,-2,0
278565649855,-2,0,-1,-1,2,0,-3,-5
278565665033,-3,-1,-2,-2,0,-2,-1,-3
278565665033,-1,-1,-1,-2,-2,0,-2,-1
278565672533,0,-2,-1,0,3,0,1,-1
278565672533,-1,-2,-1,0,3,0,0,3
278565681356,0,-1,1,0,-1,-1,-2,-2
278565681356,-1,0,-1,2,-1,-1,0,1
278565687299,-2,-1,-1,0,-3,-2,-1,-4
278565687299,1,0,-1,0,-2,0,1,7
278565702306,-1,0,0,0,1,1,-1,-2
278565702306,1,-1,-1,-2,-2,-2,-1,0
278565718213,-1,-1,1,0,-2,-2,0,1
278565718213,-2,-1,0,-3,1,1,0,1
278565724882,-1,-1,-1,-1,-1,-5,-2,-2
278565724882,-1,0,-1,-1,-1,0,0,0
278565732457,0,-1,-3,-1,0,-1,-2,-2
278565732457,-1,0,-1,-2,0,-2,-3,0
278565747959,1,1,-1,-3,0,2,-2,-4
278565747959,0,-1,0,-2,0,0,0,8
278565754981,0,-1,-1,-1,-4,-2,1,0
278565754981,-1,-2,0,-1,-3,-1,-2,-2
278565763875,0,0,1,0,1,1,0,-2
278565763875,-1,-1,-1,-2,1,-1,0,-3
278565769965,-2,1,0,-1,-1,1,-1,-2
278565769965,-2,-1,-3,0,-3,-1,-3,-3
278565784916,1,-2,0,-1,-1,0,1,5
278565784916,-1,-2,-1,1,-4,1,-1,-2
278565792400,0,-2,0,-1,-1,1,0,-1
278565792400,-2,-2,-2,0,-2,-3,1,-4
278565808177,-2,-1,0,0,0,-1,-4,-1
278565808177,-3,-2,-2,-2,2,3,-1,-2
278565808849,2,0,-2,-2,-2,2,4,6
278565808849,-1,0,-1,0,0,0,0,0
278565823871,0,-1,-1,0,-3,-3,-1,-1
278565823871,-2,2,3,1,-1,-3,-1,0
278565838118,-2,0,0,0,0,-3,-4,-7
278565838118,0,-1,-2,-1,1,-2,0,-2
278565844829,-1,-1,-2,0,-2,-3,1,1
278565844829,-1,-1,-3,-2,-3,-1,-3,-3
278565852526,1,-1,0,0,-3,-2,-2,-1
278565852526,0,-1,0,-1,-1,1,1,1
278565875682,-2,-2,0,0,1,-1,-1,-3
278565875682,1,-3,-3,0,-2,-1,-2,1
278565876280,-1,-1,-2,-1,-2,1,-2,-1
278565876280,0,0,1,-1,-1,2,-3,1
278565883875,0,-1,-3,1,0,0,4,-3
278565883875,-1,-1,-1,-2,-1,-4,-1,-2
278565889835,-1,-1,-1,0,-1,-3,-2,1
278565889835,-1,0,0,-2,-2,-1,-2,1
278565904961,1,1,0,-3,-5,-3,-2,-4
278565904961,0,0,0,-2,-1,-2,3,8
278565912403,-1,-1,-2,-2,2,-2,-3,-4
278565912403,-2,0,-2,0,0,-1,1,-1
278565927891,-2,0,-1,-1,0,-1,-3,0
278565927891,-4,-1,-3,-1,0,0,-2,-4
278565928750,-1,0,-1,-1,1,0,1,-1
278565928750,0,-2,0,0,-2,-1,2,1
278565943812,0,-3,-1,-3,-2,-3,-3,0
278565943812,-1,-1,0,-1,-1,0,-1,-5
278565949821,-1,0,0,0,0,1,1,3
278565949821,-1,-1,-1,-2,-3,-3,-1,-4
278565964870,-1,0,-1,-2,-1,-3,0,-1
278565964870,-2,0,0,-2,-2,-4,-2,-2
278565972464,-2,0,0,-2,0,0,-2,-1
278565972464,-1,-1,-2,0,1,3,0,0
278565995689,-3,-3,-1,0,1,1,-2,0
278565995689,2,0,-1,1,-1,-1,0,-1
278565996351,-1,-1,-2,-1,-3,-3,-2,-4
278565996351,-2,0,-2,0,-1,0,0,0
278566003798,-3,0,1,1,-2,4,0,-1
278566003798,-1,0,-1,-4,-3,-3,-1,2
278566010001,0,-2,-1,0,0,-1,0,-1
278566010001,0,-1,-2,-3,-1,1,0,-1
278566024963,1,-1,-1,-1,0,2,-1,-1
278566024963,-3,-1,-1,-2,-1,-2,-1,-2
278566032365,-1,-2,0,-2,1,-2,-3,-1
278566032365,-1,-1,-1,0,2,-2,-2,-1
278566048111,-1,0,-4,-1,0,1,-1,1
278566048111,1,-1,-1,-2,-1,1,0,-3
278566048786,0,-1,0,-1,-1,1,2,2
278566048786,-1,-1,2,0,2,-2,-2,-2
278566063825,-2,-1,-1,0,-3,-2,0,0
278566063825,-2,0,-2,-1,0,-1,-2,1
278566069830,-1,-2,-2,-2,-2,-3,-3,-5
278566069830,0,1,-2,0,-1,1,0,-1
278566084964,0,0,-1,0,0,-1,-1,0
278566084964,-1,-1,0,0,-1,-3,0,-3
278566092343,-2,-1,-1,-1,-2,0,1,3
278566092343,1,0,0,-2,-4,-4,-1,0
278566115517,0,-1,-1,-1,0,-3,0,0
278566115517,1,-2,-1,-1,1,4,-1,-1
278566116244,0,0,-2,1,0,0,-2,0
278566116244,0,-2,-2,-1,1,0,0,0
278566123831,-2,-1,-1,-2,-1,-2,-3,-1
278566123831,-2,-1,-1,-1,-3,0,1,-3
278566129949,0,0,0,-1,0,-2,-2,-1
278566129949,-1,-1,-2,0,-3,0,0,-1
278566152943,0,0,-1,-2,-3,-3,0,-1
278566152943,-2,-2,0,0,1,-3,-2,0
278566153808,1,-2,-1,0,0,7,3,2
278566153808,0,-1,1,-1,1,-1,-3,1
278566168086,-1,-2,0,-1,1,0,-1,-5
278566168086,-1,-1,-1,0,-4,-2,-1,4
278566168812,-2,-2,1,0,-1,-2,-2,-4
278566168812,-1,0,0,0,-3,-2,1,-2
278566183909,-1,-1,-1,-1,-3,-2,1,1
278566183909,0,-1,1,-2,0,2,0,2
278566189824,-2,-2,-2,-1,0,-4,-3,-3
278566189824,-1,-1,-2,-1,0,1,0,-6
278566204977,2,-1,0,-1,-1,0,0,7
278566204977,0,1,0,0,-1,1,-1,-2
278566212473,0,-1,-1,-1,0,-2,-3,-2
278566212473,-2,-1,-1,-1,-1,-1,-1,-2
278566228151,0,0,-2,1,1,2,3,0
278566228151,-1,-1,-2,0,1,1,0,-1
278566228861,1,-1,-1,-1,-1,-4,-1,0
278566228861,-2,0,-2,0,-1,-3,-5,-8
278566243813,0,0,-1,-3,-3,-3,1,1
278566243813,4,-1,-2,0,0,-1,0,-3
278566249994,-1,-1,0,-3,-2,-2,0,0
278566249994,-2,-2,0,-3,-1,-2,-2,1
