timestamp,emg1,emg2,emg3,emg4,emg5,emg6,emg7,emg8
278109348815,0,0,0,0,0,1,-2,-1
278109348815,-1,-1,-4,-3,0,-1,0,0
278109357729,0,-1,-2,-2,0,0,-1,-2
278109357729,0,0,0,1,-1,-1,-1,-1
278109358383,-3,-1,2,-2,-3,-1,-1,-1
278109358383,-2,0,-1,0,-1,-1,-1,0
278109365051,1,-1,-2,-1,-2,-1,0,1
278109365051,-1,-1,1,2,0,-1,-1,0
278109367442,1,-1,-1,0,-1,-2,0,-1
278109367442,-1,0,-1,-1,2,1,-1,-3
278109371392,-3,-1,0,-7,-3,-1,0,-2
278109371392,-1,-2,0,-1,-2,1,-2,-2
278109379378,-1,0,0,-2,-3,0,0,-1
278109379378,0,-1,-3,-3,0,-2,0,0
278109394746,-1,-2,-2,2,0,-3,0,0
278109394746,-1,1,0,-1,-2,-1,-1,-2
278109402099,1,-1,0,-1,-1,-2,0,-2
278109402099,-2,-1,-3,-3,0,-1,1,-1
278109409959,-1,-1,-1,-2,0,0,-2,2
278109409959,-1,-2,1,-2,-4,-1,0,-1
278109423637,1,1,-1,1,-1,2,0,0
278109423637,-1,1,-1,-1,0,0,1,0
278109431361,0,-1,-2,0,0,-2,-1,-1
278109431361,-1,-2,-1,0,0,-1,-1,-1
278109478957,-1,-1,-3,-4,-1,-1,-1,-1
278109478957,-1,-1,0,1,-1,-1,-2,-1
278109479955,-1,-1,0,-1,1,-1,-1,-1
278109479955,-1,0,-2,-1,-1,-2,-1,-2
278109480601,-2,-3,-2,0,1,-1,-1,0
278109480601,0,-1,-1,-1,-1,1,-1,-3
278109482929,1,-2,0,2,-1,0,0,-3
278109482929,0,-1,-5,-1,-1,0,-1,1
278109491232,-1,2,-2,0,0,0,0,0
278109491232,0,-3,0,-2,-2,-2,0,-2
278109498161,-1,0,0,-1,-2,0,-2,-2
278109498161,0,1,-2,-2,1,1,-1,-1
278109505459,-2,-1,-2,-3,-1,0,0,1
278109505459,-1,0,1,-1,-1,0,-1,-1
278109520538,0,0,0,0,-1,-1,-2,-1
278109520538,-1,-1,-2,-1,0,0,-1,0
278109528725,-1,0,-2,-3,-1,0,0,0
278109528725,-1,-1,1,0,0,0,0,-1
278109543047,-2,-2,0,0,-2,-2,0,0
278109543047,-2,-1,-1,-1,-1,-4,0,0
278109559336,-1,-1,-2,0,0,-2,-2,0
278109559336,-1,-1,-2,-1,-2,-1,-1,-2
278109561072,-1,-1,-1,0,-2,-1,0,-3
278109561072,-2,-1,-1,-1,-1,0,1,0
278109565553,1,-3,-2,1,0,-1,-2,-1
278109565553,0,-2,-1,-1,-2,-3,0,1
278109580504,-1,0,-2,-1,-1,-1,0,-1
278109580504,-1,-1,0,-2,-1,-1,-1,-2
278109588879,-2,0,-1,-1,0,0,1,-2
278109588879,-1,0,0,0,-2,-1,-1,-1
278109603016,0,-2,-1,-1,-1,-2,0,-1
278109603016,-1,1,0,0,0,-1,-1,-1
278109611169,-3,-1,1,-1,0,0,0,0
278109611169,-1,0,-1,-1,-1,-1,0,-2
278109617973,-1,0,-2,-2,0,0,-1,0
278109617973,-1,0,0,0,3,-1,-3,1
278109625458,0,-2,-2,2,-1,-1,-1,-1
278109625458,-1,0,1,-1,-2,-1,1,0
278109641964,-2,0,0,-2,-3,0,-1,-1
278109641964,0,-2,-3,-1,-2,0,-3,-1
278109648711,-1,-1,1,0,-2,1,-2,-1
278109648711,-1,-1,-2,1,0,0,-4,-1
278109663121,0,-2,-1,-3,-2,-1,-2,0
278109663121,0,-1,-2,1,-2,-3,0,-2
278109671252,-2,0,-1,0,-1,-2,0,0
278109671252,1,-1,-1,-1,0,1,-1,-2
278109678137,-2,1,-1,1,2,1,-2,-2
278109678137,-2,0,-1,0,0,0,0,-2
278109685476,0,-1,-2,-1,0,-1,0,1
278109685476,-2,-1,2,-2,-2,-2,-2,0
278109700509,-1,0,1,-1,-1,1,0,0
278109700509,-1,-5,0,1,-1,-1,-1,-2
278109708641,-1,1,-3,-6,-3,0,-2,-1
278109708641,-1,-1,-1,-1,0,-2,-1,-1
278109723096,0,0,-1,0,0,-2,0,0
278109723096,0,-1,-3,-3,0,-2,-2,0
278109731328,1,-1,-1,0,0,-2,0,-1
278109731328,-2,-1,-2,0,-1,0,-1,-2
278109738136,0,-1,-2,-2,0,-1,0,-2
278109738136,-2,-1,-3,-1,0,0,0,0
278109745473,-1,-2,0,1,-3,-2,-2,0
278109745473,1,-1,-2,0,-2,0,0,-1
278109760523,-1,0,-1,0,-2,-1,-1,-2
278109760523,-3,0,0,-1,-1,0,1,0
278109768668,-2,-2,0,1,1,-2,0,-1
278109768668,-1,0,-1,-1,-2,1,-1,-2
278109783156,-1,-2,0,-2,-3,0,-2,0
278109783156,1,-1,-2,-1,-2,0,0,-1
278109790958,-2,-1,1,0,-2,1,-1,-4
278109790958,0,1,-1,0,1,0,-1,-2
278109799512,-2,0,-2,1,1,0,0,0
278109799512,0,-1,-2,-2,-1,-3,-1,0
278109805672,0,0,0,0,-1,-1,-2,-1
278109805672,-1,-1,-2,-1,-1,-4,-2,0
278109820669,-2,-2,1,-2,1,-1,-2,-1
278109820669,-2,0,0,-2,0,0,1,0
278109829243,0,-2,-2,-3,-1,-1,-1,0
278109829243,-1,-2,-1,0,-1,-2,-1,2
278109842996,0,-1,-2,0,-2,-2,0,1
278109842996,-1,0,-1,-1,0,0,0,-1
278109851169,1,1,-1,-2,2,-2,0,0
278109851169,-1,0,-1,-1,-1,2,-1,-2
278109858167,-2,-1,-1,1,-1,-1,-1,-1
278109858167,-1,-2,0,-1,-1,0,-1,-1
278109873747,-1,-1,-1,1,-2,-1,-2,-1
278109873747,0,0,1,-2,-2,-1,-2,0
278109880720,-2,0,-2,-2,-1,0,-1,-1
278109880720,-1,0,-2,-1,-3,0,0,-1
278109888776,-3,-2,-1,0,-2,-1,0,-3
278109888776,0,0,-2,-1,1,-1,1,0
278109902983,0,-1,-2,-3,0,-1,-1,-1
278109902983,1,-1,1,1,1,-1,-1,-1
278109911300,-2,0,-2,-4,-2,-1,0,-1
278109911300,-1,0,-1,0,-3,-2,-1,0
278109917981,-1,0,1,-2,-2,-2,-1,0
278109917981,-1,-3,-2,-1,0,-1,-2,0
278109933854,1,-2,-1,2,-1,0,-1,-1
278109933854,0,-1,0,-3,-1,0,0,0
278109940546,-1,-1,-2,0,-1,0,0,0
278109940546,1,0,-1,-3,0,-1,-1,-1
278109948708,-2,-1,-1,-1,-1,0,-1,-1
278109948708,-1,-2,-2,-1,-3,-1,-1,-1
278109963022,-3,-2,0,-3,1,0,-1,0
278109963022,-1,-1,1,-2,-2,-1,-1,0
278109971357,1,1,-1,-2,-2,-2,0,0
278109971357,-1,-1,-1,-1,-2,1,-1,0
278109978094,-1,-1,-3,0,0,-1,-1,-1
278109978094,0,-1,-3,0,0,0,-2,-1
278109993719,-1,-2,-1,0,1,1,0,-2
278109993719,0,0,1,-1,1,0,1,-1
278110000514,-1,0,-1,3,1,-1,-1,-1
278110000514,-1,0,-2,-1,-1,-2,-1,0
278110008128,-1,0,-1,0,-3,-3,-4,0
278110008128,0,-2,-1,0,0,-2,-1,-1
278110031855,1,-2,-1,-2,-3,-1,-2,0
278110031855,-1,-2,-1,1,0,1,1,-1
278110032620,-1,-1,-1,-1,0,0,-1,0
278110032620,-2,0,-1,1,-1,0,0,0
278110038003,1,1,1,-1,-2,-1,-1,-1
278110038003,-1,-1,-1,0,-1,-1,-2,-2
278110053681,-1,-1,0,0,-1,0,-3,-1
278110053681,-1,0,0,-1,-1,-2,-2,-1
278110060657,-1,-1,-2,0,-1,-1,1,-1
278110060657,-1,-1,-1,0,-3,-1,0,-1
278110068014,0,1,-1,-1,-2,0,-1,-1
278110068014,-2,0,0,-3,-1,-1,-1,-3
278110083111,-1,-1,-1,2,0,0,-1,1
278110083111,-1,-1,-1,-2,-2,-1,-1,0
278110091171,-1,0,-1,-2,0,1,1,-1
278110091171,-2,-1,0,-1,-1,-1,-1,-1
278110097996,0,-3,-1,-3,-2,-2,-1,-1
278110097996,0,0,-2,0,0,-1,-2,0
278110113831,-1,0,-1,0,0,-1,0,-1
278110113831,-2,-2,-2,1,1,1,-1,1
278110120503,-1,0,-2,-6,-2,-1,-3,0
278110120503,-1,-1,-1,-1,-1,1,-1,0
278110128109,0,-2,0,0,-2,1,-1,-2
278110128109,0,0,0,0,0,-2,2,-2
278110142943,-1,-1,0,1,0,-1,-2,0
278110142943,-1,2,1,-2,-2,-1,1,-1
278110151209,-1,-1,-1,-2,-1,-2,1,-1
278110151209,0,2,0,-1,0,0,-1,-1
278110158114,-2,-2,-2,-2,-1,-2,-1,-1
278110158114,-1,-1,0,-2,0,-1,-3,-2
278110173750,-1,0,0,0,-1,-2,-2,0
278110173750,-1,-2,-3,-2,-1,-1,0,0
278110180459,0,-1,-1,-1,-1,-2,1,-2
278110180459,0,-1,-1,0,-3,0,0,-1
278110188156,-1,-1,0,-3,-1,0,-1,-1
278110188156,0,-2,0,-1,-1,-1,-1,1
278110202973,0,1,-1,0,-1,-1,0,-1
278110202973,-2,-1,-1,-1,-1,0,-1,-1
278110211353,-2,-1,0,1,1,-2,1,0
278110211353,1,-1,0,0,0,-1,0,-1
278110218017,-2,-2,-1,-2,0,1,-1,-1
278110218017,-2,-2,-1,0,-1,-1,0,0
278110234192,0,0,0,-2,-1,-2,-1,0
278110234192,-2,-1,-1,2,1,0,-2,-3
278110240562,1,-2,-2,0,-2,-1,0,1
278110240562,-1,0,-1,1,-2,-1,-2,-2
278110256109,-1,-3,0,0,-2,1,-1,-2
278110256109,-2,1,-1,-2,-1,-1,-1,-2
278110271864,0,0,-1,-2,0,1,0,1
278110271864,1,-3,0,-1,0,0,-1,0
278110272756,-1,0,-3,0,-2,0,0,-2
278110272756,-1,-1,-3,-1,-1,0,-2,0
278110278007,0,1,-1,-1,0,-1,-1,-1
278110278007,-2,0,1,0,1,0,0,1
278110293739,-3,-2,0,-3,-1,1,-2,-2
278110293739,-1,-3,-2,0,-1,-1,-1,-1
278110300472,-2,-2,-1,-2,0,0,0,0
278110300472,1,0,1,3,-1,-2,0,-1
278110308121,2,-1,0,0,-1,-2,-1,-1
278110308121,-1,-1,-2,-6,-4,-1,-1,0
278110322985,-2,0,-1,0,0,-1,-2,-2
278110322985,-1,-1,-2,-2,0,-1,0,-2
278110331251,-3,0,-2,2,1,0,0,0
278110331251,-1,-1,-2,0,0,0,0,0
278110338026,1,-2,-2,-2,-3,-1,-2,-1
278110338026,-1,-1,-1,-1,1,0,-2,-1
278110353725,-1,-2,1,-1,-3,-1,0,0
278110353725,0,-2,0,-1,-1,1,0,0
278110360586,-1,-1,0,0,-2,1,-1,0
278110360586,-3,-2,-1,-2,-1,0,-1,-1
278110368125,-2,-1,1,-1,0,-3,1,1
278110368125,-1,1,-1,-1,1,0,-1,-3
278110383034,-2,2,-2,0,0,-1,-2,-1
278110383034,1,-3,-3,-2,-1,-1,-1,-1
278110399395,-1,-2,-2,0,-1,-2,0,-1
278110399395,-1,-1,-1,-1,-2,0,-2,0
278110401096,-1,0,0,-2,-1,-2,-1,0
278110401096,-2,0,-2,-1,-1,-1,0,0
278110413794,0,-1,-2,-2,0,0,-1,0
278110413794,-3,-1,-1,-1,-1,-2,-1,-2
278110420625,-1,-2,-1,-1,-1,0,-2,-2
278110420625,1,-2,-2,0,0,-2,-1,0
278110427969,0,1,1,-2,0,0,-2,-1
278110427969,-2,-3,-1,-1,-2,-3,0,-1
278110442942,-2,-2,-2,-3,-2,-2,1,-1
278110442942,0,-1,0,3,0,-1,1,-1
278110451229,-1,-1,-4,-5,-1,-1,-3,-2
278110451229,-1,1,0,-1,0,-2,0,-2
278110482013,-3,-2,-2,0,0,-2,0,-1
278110482013,0,1,1,-1,-4,-1,0,0
278110482664,-1,-2,-1,1,-1,0,-2,-1
278110482664,-1,-1,-3,0,1,0,0,0
278110488801,-2,-1,0,0,-1,-2,-1,0
278110488801,-3,-1,-3,-1,0,0,-1,0
278110489468,0,-1,-1,-2,-1,-1,-2,0
278110489468,1,-2,0,-1,-1,1,-1,-1
278110502953,1,0,-3,-1,1,-2,1,0
278110502953,-3,0,-1,-2,-2,-1,-2,0
278110511102,-1,-1,1,1,-1,0,0,-1
278110511102,1,-2,-2,1,-1,0,0,1
278110525444,-2,-1,-2,-4,-2,-2,-1,0
278110525444,1,0,-1,0,1,-1,-2,-2
278110533663,-1,0,-2,-2,-1,-1,0,0
278110533663,-1,1,1,-3,0,-2,-1,-1
278110548736,-1,-1,-2,-2,0,-1,-1,1
278110548736,-2,-1,-2,2,-1,-3,0,-1
278110549443,-2,0,-2,-5,-3,-1,0,-3
278110549443,0,1,-1,0,-3,0,-4,-1
278110563138,0,-1,-2,-1,-1,0,-1,-2
278110563138,-1,-2,0,0,-2,0,1,-2
278110571170,0,-2,0,1,0,0,0,0
278110571170,-2,0,-1,1,-1,-3,-1,-1
278110594351,0,-1,-1,1,-2,-2,-2,-1
278110594351,0,-3,-1,0,1,0,-1,0
278110595156,-1,0,0,1,-2,0,0,-1
278110595156,-1,-2,-2,-2,-2,0,-2,0
278110608605,-1,-1,-1,0,-1,-1,0,0
278110608605,1,-1,0,-3,-1,0,0,-2
278110609437,0,-2,-2,-1,0,1,-2,-1
278110609437,-2,-1,0,-2,0,-1,-1,1
278110623178,0,-2,-1,-1,0,1,0,0
278110623178,-1,2,-2,-2,-3,0,-2,1
278110631196,0,-1,-1,-2,-2,0,0,0
278110631196,-2,-2,-2,3,0,-1,-1,-1
278110645483,1,-2,-1,-1,-1,-2,0,-1
278110645483,0,0,0,-1,-1,0,-1,-1
278110653869,0,-1,0,0,-2,-2,-1,-1
278110653869,-1,-2,-2,0,-1,0,-1,-1
278110676960,-1,-2,0,-2,-2,1,-1,-2
278110676960,-2,-2,-3,0,1,-2,-1,-1
278110678512,-1,-4,0,0,-1,-1,-1,-1
278110678512,0,1,-1,-1,0,1,-1,-1
278110683075,-3,0,-2,1,0,0,1,0
278110683075,0,-3,0,-1,0,-3,0,-2
278110691979,-1,-1,0,0,0,-2,-1,-1
278110691979,2,-1,-1,-1,-1,-2,-1,0
278110705661,-2,-1,-2,-2,1,-1,-2,-2
278110705661,-1,0,-1,-2,-3,-2,-1,-2
278110714467,-3,-1,-1,-1,-2,0,0,-1
278110714467,-1,-2,-1,-2,-1,0,1,1
278110727977,-2,0,-1,-2,0,0,-1,0
278110727977,-1,1,0,-1,-3,-1,-2,-1
278110736926,0,-1,-1,-2,0,0,-1,-1
278110736926,-1,0,0,-2,-1,-2,0,0
278110743012,-2,-1,0,-3,-2,0,-2,1
278110743012,-1,-1,0,-1,1,2,-2,0
278110757932,0,-1,-2,1,0,-1,0,0
278110757932,-2,-1,-1,-2,-2,-1,-1,-1
278110765641,0,0,0,1,0,-3,-1,-3
278110765641,-1,-2,1,-2,-2,-1,0,-1
278110774591,-2,-1,2,0,-2,0,-1,-1
278110774591,0,-4,-1,-1,2,-1,0,-1
278110788053,-2,0,-3,-2,-1,-1,-1,-1
278110788053,0,0,-2,1,0,-1,0,0
278110796970,-1,-1,-2,-5,-1,-2,-2,-3
278110796970,-2,-1,-1,-1,0,0,0,-2
278110802860,1,0,-2,0,-2,0,-1,0
278110802860,-2,0,0,0,-1,-1,1,-1
278110812097,-1,1,0,-1,-1,-2,0,1
278110812097,-2,0,-2,-1,-2,-1,-1,-1
278110825529,0,-1,-1,-2,-3,-1,-1,0
278110825529,0,-2,-2,-1,0,-4,-1,-3
278110842002,-1,0,-1,1,-2,-2,-1,-1
278110842002,-1,0,-1,-2,-1,-1,0,-1
278110848028,-2,-1,-1,1,0,1,0,0
278110848028,-3,-1,-1,-3,-2,3,0,-1
278110856988,-2,-1,-1,1,0,-1,-1,-2
278110856988,0,0,-2,-3,-1,0,0,-1
278110862997,0,-2,-2,2,-1,-3,-3,-1
278110862997,-1,0,1,1,-1,0,-1,-1
278110871996,-1,-1,0,-5,-2,0,1,-1
278110871996,-2,-2,-3,0,-1,-2,-2,0
278110885628,-1,-1,0,-1,-1,0,-1,-1
278110885628,-1,0,-2,0,-1,-1,-1,-1
278110894462,-1,0,0,2,0,0,0,0
278110894462,0,0,0,-1,-2,1,-2,-1
278110908009,0,0,-1,-4,-1,-2,1,-1
278110908009,-2,-1,-1,-2,-2,-2,-2,-2
278110925196,-1,-2,-1,-1,0,-3,-1,-1
278110925196,0,0,0,-1,-1,-1,-1,-1
278110925973,-1,-2,-2,0,0,-1,1,-1
278110925973,0,-3,-2,-2,-1,0,1,1
278110932044,0,-2,-1,1,1,-1,0,-2
278110932044,-2,-2,-2,-2,-2,0,-1,-1
278110945505,-2,0,1,-2,-2,1,0,-1
278110945505,0,0,1,-1,1,-1,-3,-1
278110954534,0,0,1,-3,-4,-1,-2,0
278110954534,-2,-1,-1,0,1,-1,-1,1
278110967943,-2,-2,-2,-2,-2,0,-1,-1
278110967943,-1,0,0,-1,-3,0,1,1
278110992505,-1,-1,-2,-2,1,-1,1,-2
278110992505,-1,0,0,-3,-2,-1,0,-4
278110993428,0,-2,-1,0,0,-2,-1,-1
278110993428,1,-1,-1,-2,0,-2,-1,-1
278110994950,2,0,-2,1,1,0,-1,-2
278110994950,1,0,1,0,0,-3,0,0
278111005542,0,0,0,-1,0,-1,-2,-2
278111005542,-2,0,-3,0,-2,-1,-1,-3
278111014473,-2,-1,0,-1,-2,0,-2,2
278111014473,-2,-2,-1,0,2,-1,-1,1
278111028024,0,-1,-3,-1,0,0,-2,-1
278111028024,-1,-2,-2,1,0,-1,0,-1
278111036933,1,0,1,0,-3,0,-1,0
278111036933,-1,0,-2,0,-1,-2,-2,-1
278111051910,2,-1,-2,-2,-2,-3,0,-1
278111051910,-1,-1,0,0,-2,-2,-1,1
278111053473,-2,-3,-1,0,-1,0,0,0
278111053473,-3,-3,1,-1,0,-1,0,-2
278111065595,-2,1,1,-1,0,-1,1,0
278111065595,-2,0,1,1,-2,0,-2,1
278111074540,-1,0,0,1,-1,-2,-2,0
278111074540,-1,0,0,1,-1,-2,-2,0
278111088042,0,-1,-1,0,-1,-1,-1,-2
278111088042,-2,-1,-1,-3,0,-2,0,-2
278111096970,0,1,0,-2,1,1,0,-2
278111096970,1,0,-2,-2,-2,-3,0,0
278111111803,-1,0,-1,-1,-1,0,0,0
278111111803,1,-1,0,-1,-3,-1,-1,-1
278111119562,0,-2,-1,-1,-1,1,-2,0
278111119562,-2,-1,-2,-1,-4,0,-1,-2
278111125516,-1,-2,0,-2,-1,0,-1,1
278111125516,0,-1,-2,-3,-2,0,0,-1
278111134499,-1,0,-2,-2,0,-2,0,-1
278111134499,-1,0,-1,0,-2,1,-1,-1
278111156890,-3,-1,0,0,0,-1,-1,-1
278111156890,1,0,-1,-2,1,-1,-1,1
278111158402,0,-1,-1,-2,-2,-2,0,-2
278111158402,0,-1,-1,-1,0,1,0,0
278111171862,-2,-1,-1,1,0,-1,-1,-2
278111171862,-1,-1,-1,-2,-1,-3,-1,-2
278111173484,-1,-3,0,0,-1,-1,-3,-1
278111173484,-1,0,-1,-2,-1,-1,-1,-1
278111185625,0,-1,-1,-2,-3,-1,-3,0
278111185625,-1,0,-1,1,-1,0,-1,-1
278111194530,-1,-1,-1,1,-1,0,1,-2
278111194530,0,-1,-1,-3,-1,0,-2,-2
278111208001,0,-2,-1,0,0,-2,1,1
278111208001,1,-2,-3,0,-2,-1,-3,-2
278111223083,0,-1,0,-1,0,-2,-1,1
278111223083,0,0,0,1,1,-1,1,-2
278111231896,-2,0,-1,-1,0,-1,1,-2
278111231896,-1,-3,0,-1,-1,-1,-1,-2
278111233445,-1,2,0,-3,-2,-2,-1,-2
278111233445,-1,-2,-3,0,-2,-1,1,0
278111245479,-1,-1,0,0,0,0,-2,0
278111245479,-1,-1,-1,1,0,0,0,-2
278111254516,0,-3,-1,-2,-2,0,-1,-2
278111254516,0,0,-2,-1,1,-1,-1,-2
278111267977,-1,-1,-1,-1,-1,-1,0,-1
278111267977,0,-1,0,1,-1,-2,-2,0
278111276974,-1,-1,0,0,-2,-2,-1,-1
278111276974,-1,-1,0,-2,0,0,-1,0
278111291852,0,-1,-2,-2,2,1,-1,-1
278111291852,-1,-2,-2,-4,-1,0,-2,0
278111293465,0,-3,-2,-1,-1,-1,-1,-1
278111293465,-1,-2,-2,1,-2,-2,-2,0
278111305649,0,-1,-2,1,-1,-2,0,1
278111305649,-1,-1,0,0,-2,-3,0,1
278111314478,0,0,-2,0,-1,-1,1,0
278111314478,-1,-3,-2,0,0,0,0,-1
278111328015,-1,-3,-2,-3,-1,-2,0,-1
278111328015,0,1,-2,1,-2,-1,0,-1
278111344544,-1,0,0,-1,-1,1,0,0
278111344544,-1,0,0,-1,2,-1,0,0
278111351889,0,-1,-1,0,-1,1,1,0
278111351889,0,-2,0,-1,-3,0,0,0
278111353438,0,-1,-1,0,0,-3,0,-1
278111353438,0,-1,-1,-1,-1,1,-1,-2
278111365454,-2,-3,-1,-1,-1,-1,-2,-2
278111365454,-1,0,0,-2,0,-1,-1,-1
278111374592,-1,0,-2,-1,-3,2,0,-1
278111374592,0,0,0,-1,-2,-1,0,2
278111388092,0,0,-1,-3,0,-2,-3,-2
278111388092,-2,0,-1,1,1,0,-1,0
278111397010,-1,-1,-2,-2,0,0,-1,-2
278111397010,0,-1,-1,-1,1,0,0,-1
278111412298,0,1,-1,-2,-3,0,-1,0
278111412298,-2,-2,0,-2,0,-2,-1,-1
278111418104,-2,-3,0,0,-1,-1,-2,1
278111418104,-1,-1,-4,-3,-4,-3,-2,0
278111425524,-1,-2,-1,-1,-2,-2,0,-1
278111425524,-2,-2,-2,-1,-1,-2,-1,-3
278111434508,-1,-2,0,-1,-2,-2,-1,-1
278111434508,-1,-1,-1,-1,-2,-2,-2,0
278111456840,0,0,-1,1,0,-2,-2,-1
278111456840,-1,-1,-1,-1,-2,0,0,-2
278111458427,0,-2,-1,-1,1,0,0,0
278111458427,-2,0,-2,1,-2,0,-1,-1
278111471985,0,-1,-1,-2,-2,-1,-2,0
278111471985,1,-1,-1,0,-1,1,0,-1
278111479461,-2,2,-2,0,-1,0,-2,-1
278111479461,-2,0,-2,-4,-2,0,0,0
278111485652,-2,-1,0,0,0,-2,-1,0
278111485652,-2,0,0,1,0,0,0,0
278111495198,-1,-1,-2,-1,0,-1,-1,-2
278111495198,-2,-1,-1,1,1,-1,0,-1
278111508081,-1,0,0,0,-2,-1,0,-1
278111508081,-1,-3,-1,-2,-1,-1,-2,-1
278111516937,0,0,0,0,-2,-2,0,-1
278111516937,1,-2,-1,1,0,-1,0,-1
278111532029,-1,-2,-2,-2,-1,-1,1,-2
278111532029,1,-1,0,-4,-1,0,-1,-1
278111533391,-1,-1,-1,0,-2,-1,-2,0
278111533391,0,0,-1,-1,-1,-2,-3,0
278111545473,0,0,-1,0,2,0,-2,0
278111545473,-1,0,-1,2,-1,-2,-1,-2
278111554484,-1,-1,-1,-1,-1,0,0,-1
278111554484,-2,0,-2,-1,-1,-3,-2,0
278111568022,1,-2,-1,0,-3,-2,0,-1
278111568022,-1,-1,0,-1,-1,-1,1,-1
278111577012,-1,-1,0,-2,1,-1,-1,-2
278111577012,-1,0,1,0,0,-1,-2,-2
278111591351,-2,-1,-1,-4,-2,0,-1,-2
278111591351,-2,-2,-1,-1,0,0,0,-1
278111597981,-2,-2,-1,-1,0,-3,1,2
278111597981,-1,-2,0,0,-2,-1,1,-1
278111605520,-1,-2,-2,1,0,-2,-2,-1
278111605520,1,-1,0,-1,-1,-1,-3,-1
278111614502,0,0,-2,-2,-1,-1,-1,0
278111614502,0,-2,-1,-1,-1,-1,-1,-1
278111628092,-1,0,0,-1,-1,-1,1,-2
278111628092,-2,0,0,-1,1,0,-1,0
278111636994,-1,0,-1,-3,-3,-2,-1,-1
278111636994,-3,-2,-1,0,0,-2,-1,-2
278111651146,0,-1,1,2,-2,-1,-2,-1
278111651146,0,-1,-2,-2,-2,0,-1,-1
278111657976,0,0,1,1,-4,0,-2,-1
278111657976,0,-1,0,-3,0,0,0,-1
278111665655,-2,0,1,0,0,-2,-2,0
278111665655,0,-2,0,-2,1,-3,0,-1
278111674532,0,-1,-1,0,1,-1,-1,0
278111674532,0,-3,-1,0,-4,-3,0,1
278111688150,-1,1,-3,-1,-1,0,0,-1
278111688150,0,0,0,-1,-3,1,-1,0
278111704438,-1,-1,-2,-2,-1,2,-2,0
278111704438,-1,-1,-1,-3,0,-1,-1,-1
278111710646,-3,-1,-1,-2,0,1,-1,1
278111710646,-2,-3,1,-2,-3,-1,0,0
278111719476,-2,0,-1,-1,-1,-1,0,-1
278111719476,0,1,-1,-1,1,-1,0,0
278111725490,0,0,-2,0,-3,0,-1,-2
278111725490,0,-1,1,0,-1,0,-1,-2
278111734515,-3,1,-1,-2,0,-2,-1,0
278111734515,-2,-1,-1,-2,0,-1,-3,-1
278111747991,0,0,0,-2,0,-3,-2,1
278111747991,0,-1,0,-1,1,-1,0,-1
278111757015,1,-3,-2,0,0,-1,-1,-4
278111757015,-1,-1,-2,-2,0,1,1,-2
278111771288,-1,-3,0,-1,-2,0,1,-2
278111771288,-3,0,-2,1,-1,-1,1,-1
278111778084,-1,-2,-1,-1,-2,-1,-1,-1
278111778084,0,-1,-2,0,-2,-1,0,0
278111785534,0,-3,0,1,0,-2,0,0
278111785534,1,2,-2,2,0,-2,-1,-1
278111794482,-2,-2,0,-2,-3,-2,0,-2
278111794482,-1,1,-2,-3,0,-1,-1,-1
278111816899,-1,-1,-3,-3,0,-1,-1,0
278111816899,-1,-1,-1,-1,-1,-2,-3,0
278111818407,-2,0,-2,-1,1,1,0,0
278111818407,0,1,-2,1,-1,1,1,0
278111831231,-1,-1,1,-2,-2,0,0,-2
278111831231,0,0,-3,-2,-3,-1,2,-3
278111838127,1,0,-2,0,-1,-2,0,-1
278111838127,-2,-3,-2,-2,-1,-1,1,0
278111845421,-2,2,0,0,0,-1,-1,-2
278111845421,-1,-1,-1,2,1,-2,-1,1
278111854478,-2,-1,-2,-1,0,1,0,-2
278111854478,0,-2,-1,2,-2,0,-2,-1
278111867867,0,-2,-2,0,-1,0,0,1
278111867867,0,-1,-1,-2,0,-1,-1,-1
278111876979,0,0,-1,-1,1,-3,0,0
278111876979,-1,0,-1,-2,0,-1,-3,-3
278111890929,-1,-1,-1,-3,-2,0,-1,-2
278111890929,-1,-1,-1,-2,-3,-2,-1,0
278111899433,-1,-1,-2,-3,-2,-3,-2,-1
278111899433,-1,-1,-1,-4,-2,-2,-1,0
278111914360,0,-2,-1,2,-1,1,-2,-1
278111914360,-1,-2,0,-1,-1,0,0,-1
278111915977,0,-1,-1,-1,0,0,-1,1
278111915977,0,-1,-2,1,0,1,-1,-1
278111928169,-1,-1,-2,-1,0,0,-1,-1
278111928169,0,0,-2,-4,-2,0,-2,-2
278111937009,-2,-1,1,-1,-1,0,-2,0
278111937009,-2,0,0,-1,-2,-1,1,-2
278111951158,-1,-2,0,0,0,-1,0,-1
278111951158,-1,-2,0,0,0,-3,-1,0
278111958004,0,-1,-2,0,-2,-3,-2,0
278111958004,-2,0,-2,0,-2,0,-1,1
278111981959,-1,-2,-2,0,-2,0,0,0
278111981959,-2,-1,-1,1,0,0,-1,-3
278111983438,0,0,-1,-1,-3,0,-3,-2
278111983438,-1,-2,0,-1,0,-1,-2,0
278111988154,-1,0,-2,0,-2,-2,0,-3
278111988154,-2,-3,0,1,-1,2,1,0
278111996961,-3,-2,-2,-1,0,-1,-1,1
278111996961,-1,-1,-1,-1,-2,-2,-2,0
278112011124,-1,-1,-1,-4,0,-1,0,-1
278112011124,0,-2,0,-2,0,0,-1,-2
278112017988,1,-1,0,-2,-1,1,-1,0
278112017988,-1,-3,0,2,-2,-2,-1,-2
278112034827,0,-1,0,0,0,-1,-2,-1
278112034827,0,1,-1,2,-3,-1,0,0
278112036454,-2,-1,0,-1,1,-1,-1,-2
278112036454,-1,0,-3,-1,-1,0,-1,-1
278112048059,-1,-2,-1,-2,-2,0,-2,-2
278112048059,0,0,-1,-1,-1,0,-2,0
278112063173,0,-1,-2,-2,-1,-1,0,-1
278112063173,1,-1,-2,-1,-1,0,-1,-2
278112071330,-2,0,-1,2,1,-2,0,-1
278112071330,-1,-2,-1,0,0,-1,-1,-1
278112078110,1,-2,1,0,0,-2,0,0
278112078110,-1,0,0,0,1,-2,0,0
278112094363,0,0,-4,-1,-1,-1,-1,0
278112094363,-2,-2,0,-2,-2,-1,-1,-1
278112095957,-1,0,0,-1,0,-1,-2,0
278112095957,0,-1,-1,0,2,0,-4,-1
278112108022,-1,0,0,0,1,0,-2,1
278112108022,-1,1,-1,-1,0,-2,-1,-1
278112117000,-2,1,-3,0,-2,0,-1,0
278112117000,0,0,0,0,0,-2,1,-1
278112131370,-1,0,-1,-3,-2,0,1,-1
278112131370,-2,0,-2,-1,0,0,0,-1
278112138033,-2,-1,-1,-2,-1,0,-1,-2
278112138033,-1,-2,-2,-2,0,-2,0,-2
278112154958,-1,-2,0,-1,-1,-2,-2,0
278112154958,1,-2,0,-2,0,-3,-2,-1
278112156413,-1,-2,0,0,-3,0,1,-2
278112156413,1,-1,-2,0,-4,2,-2,-1
278112176842,-2,-2,-3,-3,-2,0,-1,-2
278112176842,0,0,-3,-2,-1,-1,-2,-2
278112178446,-1,-1,-3,2,1,-2,1,0
278112178446,-3,-3,-2,-2,0,-2,0,-1
278112190394,-1,-2,0,1,0,-1,0,-1
278112190394,-2,-1,-1,0,-2,-1,-3,0
278112216477,-1,-1,-1,0,-1,-1,-3,-1
278112216477,0,0,-1,0,-1,2,0,0
278112217437,0,1,0,1,-1,-1,-2,-1
278112217437,-1,-1,-1,-3,-1,-2,0,-2
278112220519,-1,-2,1,-1,0,-1,0,-1
278112220519,-1,-1,-1,-2,0,0,-1,-1
278112236924,-1,0,0,0,0,-1,-2,2
278112236924,-1,0,-2,0,-1,0,0,-1
278112238465,-2,-2,-1,-1,-1,-1,0,-2
278112238465,-3,-1,-2,1,-1,-2,0,1
278112259286,0,-1,-2,-2,-2,-2,1,-2
278112259286,0,-1,0,-2,-4,-2,0,0
278112260915,-1,0,-1,-2,0,0,0,-2
278112260915,-1,-2,1,0,1,-2,-1,-4
278112274355,-1,-1,-1,2,-1,-2,-1,-1
278112274355,-1,1,2,0,-2,-1,0,1
278112275953,-1,-1,-1,0,0,-1,-1,0
278112275953,0,0,-3,-4,-1,-1,-2,2
278112288513,0,-1,0,2,1,0,0,-1
278112288513,-1,-2,-3,-1,-1,0,-1,-2
278112296918,0,-2,-2,-1,-3,-2,-2,0
278112296918,-1,0,2,-1,-2,0,-1,0
278112310611,0,-1,1,-2,-1,-1,-2,0
278112310611,-1,-2,-1,1,1,2,-1,-2
278112319503,1,-2,-1,-1,-1,0,-1,-2
278112319503,-2,0,-1,0,-1,-2,0,-1
278112334481,-1,-1,-3,-2,0,0,0,0
278112334481,2,-2,-2,-1,0,-2,0,2
278112335930,-1,-1,0,-3,-4,-3,0,0
278112335930,-1,-1,-1,-3,-1,-1,-1,-1
278112348114,-2,0,-3,-2,-2,-1,-2,-1
278112348114,0,-1,-1,-1,-1,0,-1,-1
278112356992,-1,-1,-1,0,0,0,-2,1
278112356992,-1,1,-1,-2,-1,0,0,0
278112370580,0,-2,1,1,2,0,-1,0
278112370580,0,-1,1,-5,-2,-3,-1,-2
278112379488,-1,-1,0,-1,-1,1,-2,-3
278112379488,-1,1,-1,0,-3,-1,-2,0
278112394547,-1,0,0,-2,0,-1,-1,-1
278112394547,0,0,0,2,0,-2,0,-1
278112395966,-1,0,-1,0,0,-1,0,-1
278112395966,-1,-3,-2,-1,-1,-2,-1,-1
278112408004,-2,-1,-1,-4,-2,-2,0,-2
278112408004,-2,-2,-2,-1,0,1,-1,0
278112417020,0,0,-1,1,1,0,0,1
278112417020,0,-1,-1,0,-2,-3,0,0
278112430609,-1,-1,-1,0,-1,-1,-1,-1
278112430609,0,-1,0,-4,-3,-1,1,-1
278112439514,0,0,-1,-1,-2,-1,0,-1
278112439514,-1,-1,0,-2,1,-1,-1,-1
278112454505,0,-3,-2,-2,0,-2,0,-1
278112454505,-2,0,0,-1,1,-1,-1,-1
278112455958,-1,0,-3,0,-1,-2,-1,-2
278112455958,-1,-1,-1,-2,0,-1,-1,-1
278112468031,-1,0,-1,0,-2,-3,-2,0
278112468031,0,-2,0,0,-2,-1,-3,1
278112476974,-1,-1,-3,-3,-2,-1,-1,0
278112476974,0,-3,-1,0,1,-1,-1,-2
278112490490,-2,1,0,-2,-1,1,-1,1
278112490490,1,-1,-2,-1,-1,-1,0,-1
278112499489,-1,0,-1,2,-1,-3,-2,-2
278112499489,-2,-4,-2,-1,-1,-1,-1,-2
278112514550,-1,0,0,-1,-2,0,-1,-1
278112514550,-2,-2,-3,0,-3,-1,-1,-1
278112515944,-3,-1,1,-1,0,-1,0,1
278112515944,-2,3,-1,-4,-2,-3,-2,1
278112528131,0,-1,0,1,-2,-1,-1,-3
278112528131,-1,1,-1,1,-1,-1,0,-1
278112536961,-1,-1,0,-2,1,2,-2,-2
278112536961,-1,-1,-1,1,-2,2,0,-1
278112559468,-1,-2,-2,-3,-3,-1,0,-1
278112559468,-2,0,-2,1,0,-2,-2,-1
278112560921,-1,-1,-2,-1,-2,-1,0,0
278112560921,-1,-2,-1,0,0,0,-2,-1
278112574510,-1,-1,-1,-2,-1,-1,0,-1
278112574510,0,-1,1,1,0,0,-2,-1
278112575955,0,0,-1,-2,1,-2,-2,0
278112575955,0,0,-1,-1,-2,-2,-1,-1
278112588090,-2,-1,0,0,-1,0,-1,-1
278112588090,-1,0,-1,-2,-2,-2,0,-1
278112596978,-2,-1,0,-1,1,-1,0,0
278112596978,0,-2,-1,0,-2,-2,-1,-1
278112610643,0,1,-1,0,1,-2,0,-1
278112610643,-1,-1,-1,2,-2,-1,-1,-1
278112619461,-1,0,0,-2,-1,-1,0,-1
278112619461,-1,-1,-2,-2,1,-1,0,0
278112634316,0,-2,-2,0,-1,0,-1,-1
278112634316,-1,-1,0,-1,0,-1,-1,-1
278112635913,0,-2,-3,-2,-2,-2,0,-2
278112635913,0,-1,0,-1,-1,-3,1,-1
278112648020,-1,-1,-2,-2,-1,-1,-2,-1
278112648020,-1,-1,-1,0,-1,-1,0,0
278112656998,-2,-2,-2,2,-3,0,0,0
278112656998,-1,0,0,1,1,1,1,0
278112670642,-1,-1,0,-1,-1,1,0,-2
278112670642,-1,-1,0,-1,2,0,-1,-2
278112679518,0,0,-2,-1,-1,-1,-1,2
278112679518,-1,-2,-1,-1,-2,0,-1,-1
278112693699,-1,-2,-1,2,1,-2,1,-1
278112693699,-1,0,-1,0,-2,-1,-2,-1
278112700653,1,0,-2,-2,-2,0,0,0
278112700653,-2,-2,-1,1,1,-1,-1,-1
278112708095,1,-2,-2,1,0,0,1,-1
278112708095,-1,0,-1,-2,0,-1,0,-1
278112716978,-1,-2,0,-2,0,-1,-1,0
278112716978,-1,-1,-1,-2,-2,-1,-1,1
278112739476,-1,-1,1,-2,-3,-3,-3,-2
278112739476,0,-1,0,0,0,-1,-1,0
278112740923,0,0,-1,1,1,-1,2,-1
278112740923,-1,-2,0,0,0,-2,-1,0
278112753611,-1,0,-1,-1,-2,0,0,0
278112753611,0,0,-2,-2,-2,-2,1,0
278112760545,-1,-2,-1,-2,0,-1,-2,-2
278112760545,-1,1,0,-4,0,-1,0,-2
278112768050,0,-1,-3,0,0,-1,-1,-2
278112768050,-1,-1,1,-3,-1,-1,-2,0
278112777004,-2,0,-1,1,0,0,0,-2
278112777004,-1,-2,-1,-1,0,-1,-2,-2
278112790619,-2,-1,1,-2,-1,0,0,-1
278112790619,0,0,-2,-2,-1,2,0,-2
278112806965,0,-1,0,-2,-1,0,-1,0
278112806965,-1,-1,0,0,0,-1,0,-2
278112813699,0,-2,0,1,-1,-2,0,-1
278112813699,-2,-1,-1,0,2,0,-1,-2
278112820480,-3,0,-2,-1,-1,-2,-1,-1
278112820480,-1,2,-1,-1,-3,0,0,-2
278112828124,0,0,0,-1,-2,3,-2,-1
278112828124,-1,-2,0,-1,-2,2,-1,-2
278112836952,0,0,-1,-2,0,-2,-2,-1
278112836952,1,-1,-1,-2,1,-1,-2,0
278112850492,-2,-4,-3,-1,-1,-1,-1,-1
278112850492,-2,-1,-2,1,-1,-4,-1,-1
278112859436,-2,-1,0,-1,-1,-2,0,-3
278112859436,-1,-2,0,1,-1,0,-1,-1
278112873616,-2,1,1,-2,-2,-1,-1,-1
278112873616,-1,-1,-1,1,1,-1,-1,0
278112888000,0,-2,-2,-6,-2,1,-1,1
278112888000,0,-2,-1,-2,-1,-2,0,-3
278112896614,-1,1,-1,-2,-1,-1,0,1
278112896614,-1,0,-2,-2,-1,0,0,0
278112903010,-2,0,0,-1,-1,-1,0,-1
278112903010,0,1,-1,-1,-4,-1,-1,1
278112910527,0,-1,-2,1,0,-1,-1,0
278112910527,1,1,0,-1,-2,-2,-2,0
278112919469,-1,-1,-2,-1,1,0,-1,-2
278112919469,-1,-1,-1,3,-1,-1,-2,-2
278112933721,-2,0,-1,0,-2,-5,-1,-2
278112933721,-1,-2,-2,-1,0,-2,-1,-1
278112940500,-1,0,0,-2,0,-2,0,0
278112940500,-2,1,-1,1,-1,0,0,-1
278112964335,-1,-1,0,-2,0,1,-1,-1
278112964335,-2,-1,0,-1,-2,1,0,0
278112965948,1,-2,-3,-3,-4,-1,0,0
278112965948,0,-1,-2,-2,1,0,-3,-1
278112970407,-1,1,0,0,-1,-1,-1,-1
278112970407,0,1,-2,-1,-1,-3,0,-3
278112979450,0,0,0,2,1,0,0,-1
278112979450,-2,-1,-1,-1,0,1,0,2
278112993823,0,-3,-1,0,-1,0,-1,-1
278112993823,-2,-1,-1,0,0,0,-1,-1
278113000455,0,-1,0,-2,-1,-2,-1,0
278113000455,-1,-1,0,0,-2,-1,0,-1
278113016799,-1,-1,0,-2,-1,0,-1,0
278113016799,-1,0,3,-1,1,-1,-2,-1
278113018342,-2,-2,0,0,-1,1,1,-2
278113018342,-2,-3,-2,0,-1,-2,0,0
278113030445,-1,-1,-1,0,-1,-3,0,0
278113030445,0,-1,-2,-1,-2,-3,0,0
278113039419,-1,-1,0,2,-1,-1,0,1
278113039419,0,0,-1,-1,-1,-1,-2,-2
278113053549,-2,0,-1,0,-1,0,0,0
278113053549,0,-1,-2,-1,-3,-1,0,-2
278113060396,-1,1,-2,-2,0,0,0,1
278113060396,0,-1,0,-1,-2,0,1,-1
278113077247,-1,-2,-1,0,1,1,-2,-2
278113077247,-1,-2,-1,-2,0,-1,-2,-1
278113082911,-1,0,-1,0,-1,-3,-3,0
278113082911,-1,-1,-2,-3,-1,0,-1,0
278113090419,0,0,0,0,-1,-2,-2,-1
278113090419,-1,0,-2,-1,-2,-1,-2,1
278113099408,0,-3,-2,0,-1,0,0,-2
278113099408,2,1,2,-2,-1,-1,1,-2
278113113616,1,-2,-1,-1,-1,0,1,0
278113113616,-1,-2,-1,1,-1,-1,-1,0
278113120418,-2,-2,0,-2,-1,-2,-2,0
278113120418,0,-2,-1,0,0,0,-1,-1
278113136799,0,-1,0,0,0,0,-1,-1
278113136799,0,-1,0,0,1,1,0,-1
278113138404,-3,-2,-4,-6,-3,1,-1,0
278113138404,0,0,0,-1,0,-1,-1,-1
278113150418,-1,2,-1,0,0,-1,-2,-1
278113150418,-1,-2,0,-1,-2,-2,-2,0
278113159411,-1,-2,0,0,-1,0,0,0
278113159411,-2,-1,0,-3,-1,-2,-1,0
278113173611,-2,-1,0,-1,1,-1,-1,0
278113173611,1,1,-3,-1,1,-1,2,0
278113180410,-1,-1,-1,0,-1,0,0,-1
278113180410,-1,-1,-2,0,-1,0,-3,-1
278113196790,0,-2,-1,0,-2,-1,-1,-1
278113196790,-3,-1,-2,-1,-1,-1,-2,-3
278113198374,-1,0,-2,-1,0,0,2,-2
278113198374,0,-2,0,-1,0,0,0,-1
278113210426,0,1,-2,0,-1,-1,-1,0
278113210426,-2,-2,-1,-3,-1,-2,-1,-1
278113219408,-2,-3,-1,-2,0,-1,-1,0
278113219408,-1,0,-1,-2,-3,-3,0,0
278113233602,0,-1,0,-1,0,-1,0,1
278113233602,-1,-2,1,-1,0,-1,-1,0
278113240379,1,2,-1,1,-1,1,-2,-1
278113240379,-1,0,0,3,-2,2,-2,-1
278113256776,-1,-2,-2,-7,-4,-2,-1,-2
278113256776,1,-1,-1,-1,-2,1,1,-1
278113258416,-2,-3,-1,1,-1,-1,1,-1
278113258416,-1,-1,0,-1,0,-4,-1,-2
278113270431,-2,0,-1,0,-1,-1,-2,-1
278113270431,-1,0,0,-2,-1,-2,2,0
278113279411,-1,-1,-1,-3,-1,-1,-2,-1
278113279411,0,-1,-3,-1,1,-1,0,-1
278113293589,-1,-2,0,1,-2,0,-2,-1
278113293589,0,-1,0,-1,-1,-1,-1,-1
278113300405,-1,-1,-1,1,-2,-2,-2,-1
278113300405,-1,1,-1,-1,-1,0,-1,-1
278113316790,0,-1,0,0,-2,-1,0,0
278113316790,0,-2,0,0,-1,0,-2,-1
278113318365,0,0,-1,1,-2,-1,1,-1
278113318365,-2,-3,-3,-2,-2,-1,-1,-2
278113330418,-1,-1,1,-2,-1,0,0,1
278113330418,0,-2,-1,0,-1,0,-2,0
278113339408,-1,-2,1,-2,1,0,0,1
278113339408,-1,-1,-2,2,0,0,-2,1
278113353604,1,1,-2,0,-3,0,1,-1
278113353604,-1,-1,-2,1,0,0,-1,1
278113360473,-1,-1,-2,-1,-1,0,-1,-1
278113360473,-1,-1,-1,-2,-1,0,0,0
278113376764,0,-1,-1,-3,0,-1,-2,-2
278113376764,0,1,-1,-1,-1,-1,-1,-1
278113378369,-1,-1,-2,-3,1,0,-2,-1
278113378369,-1,-1,-3,1,0,1,0,0
278113390397,-2,-2,0,-1,0,1,1,-1
278113390397,-1,-1,-1,1,-1,1,-2,-3
278113399463,0,-2,0,0,-1,0,-1,-1
278113399463,-1,0,1,-1,-2,-3,-2,-2
278113413337,1,-1,-1,2,0,-2,-3,0
278113413337,-1,-2,-1,-4,-2,-1,-3,1
278113421971,-1,-1,-2,0,-2,-1,0,-1
278113421971,-1,-1,0,-4,-1,0,-1,-1
278113436811,-1,1,-1,1,-2,-1,-1,-2
278113436811,0,0,-1,-1,0,-2,1,0
278113438399,-1,-1,-2,-1,-2,-3,0,-3
278113438399,-1,-2,-2,-1,-1,-3,1,-1
278113450468,-2,-3,-1,-1,-1,-1,-1,-2
278113450468,-2,-1,-2,2,0,0,-1,1
278113459483,-1,-1,0,0,-1,1,-1,1
278113459483,-1,-1,-1,-2,-1,-1,-1,-3
278113474206,-1,-1,-1,-1,0,-1,-2,-1
278113474206,-1,-2,0,-1,-2,0,-2,-1
278113481959,-2,1,-2,-1,-1,-1,-1,0
278113481959,1,-3,0,-1,1,2,0,1
278113497022,-2,-1,-1,-1,-1,-2,-2,-2
278113497022,-1,0,-2,-1,-1,-2,1,1
278113498375,-1,0,-1,1,-1,0,-2,-1
278113498375,-1,-1,0,-2,0,1,0,-1
278113510469,-1,0,1,-1,1,-2,-1,-1
278113510469,-1,-1,-2,1,0,-1,0,0
278113519505,-1,-3,-3,0,1,-1,-3,0
278113519505,-1,-1,-1,-1,-2,-1,0,0
278113533798,0,-1,-1,-2,-1,1,0,-3
278113533798,-2,-1,-2,-2,-3,0,0,0
278113540532,-1,0,-1,-3,0,0,-1,0
278113540532,-1,0,0,-2,0,-1,-2,-2
278113564311,-1,-1,-1,-3,-1,-1,1,0
278113564311,0,-1,-2,-1,-1,-2,-2,-3
278113565870,0,0,-1,2,0,-1,0,-1
278113565870,-2,-1,-1,-5,-2,0,-2,0
278113570484,-2,0,0,-1,-1,-1,-3,-1
278113570484,-1,1,-1,-1,0,0,0,-2
278113579483,-1,-3,-2,-2,-1,-1,-1,-1
278113579483,0,-1,-2,0,-1,-2,0,0
278113593656,1,-2,-1,0,-2,-1,0,-3
278113593656,0,0,-2,-1,-3,-1,-1,-1
278113600553,-1,-1,0,0,1,-2,-2,-2
278113600553,-3,-1,1,3,0,0,-1,-1
278113617052,-1,0,-2,0,-2,0,1,0
278113617052,0,0,0,-2,1,-1,0,0
278113618433,0,0,0,-1,-2,-1,0,-1
278113618433,1,-1,-1,-3,-1,-2,-1,0
278113630619,-1,2,-1,-1,-1,0,-2,-1
278113630619,-1,-1,1,0,0,-1,-1,-2
278113647011,-2,-1,0,-2,0,-1,-1,0
278113647011,-2,-1,-1,2,2,-2,-2,-2
278113653682,0,-2,-1,-3,-3,-1,-1,0
278113653682,-1,-1,-2,-2,-1,-1,0,0
278113660518,0,-1,-2,-1,-3,-1,0,0
278113660518,0,-1,-1,1,0,1,-1,0
278113676752,0,-2,0,-2,0,0,-1,-1
278113676752,-2,0,0,-1,-1,-1,-2,-2
278113682922,-1,0,0,-2,-1,-3,1,0
278113682922,-1,-2,0,-2,-1,-1,-1,-2
278113690534,-1,-2,-2,0,0,-2,0,-1
278113690534,-1,-2,-3,-2,-1,-1,0,0
278113699479,-1,0,-2,1,-2,-2,-2,0
278113699479,-1,-1,-1,0,-2,-2,0,-1
278113713833,0,-1,-1,2,0,0,-2,-1
278113713833,0,0,-2,-1,-2,-1,0,-1
278113720608,-2,0,-1,-2,-1,-1,-2,-2
278113720608,0,0,-1,-3,-2,1,-1,0
278113736264,-2,-2,0,0,2,0,-1,-2
278113736264,-1,-1,1,0,-2,0,1,0
278113742980,-1,-2,-3,-2,-2,-1,-2,0
278113742980,-3,-2,0,0,-2,-1,-1,-2
278113750460,0,0,0,-1,-2,-1,0,0
278113750460,0,-1,-1,0,-1,-2,-1,0
278113759492,0,0,-1,0,-1,-1,0,0
278113759492,0,-1,-2,-3,-1,-1,-1,-2
278113773801,-1,-1,-1,-1,-2,-1,-2,0
278113773801,-2,-2,-1,-1,1,-2,-1,-2
278113780577,-3,-2,-1,-1,1,0,-2,-1
278113780577,0,0,0,-1,1,-1,-1,0
278113796231,0,-1,-1,-2,-2,0,-1,-1
278113796231,-3,-1,-3,-1,-2,1,-2,0
278113802967,1,-2,-1,-2,-1,-2,1,-1
278113802967,-2,1,-2,0,-3,-2,-1,0
278113819353,0,-1,-1,-3,-2,-2,-1,-2
278113819353,0,-1,-1,1,-1,-2,-1,-1
278113820901,-3,-2,-3,-2,1,0,-1,-2
278113820901,0,-1,-1,-2,-1,-2,0,-1
278113833757,-2,-2,0,1,0,-1,1,0
278113833757,-1,-1,-2,1,-4,0,-1,0
278113841142,0,-1,-1,0,-2,-1,-1,0
278113841142,0,-2,0,-1,0,1,-1,-1
278113856155,-2,-1,0,-2,1,0,-1,-1
278113856155,-1,-2,-2,-5,-1,-2,-2,-1
278113862983,0,1,-2,0,-1,0,-2,-2
278113862983,0,1,-2,-2,-2,-1,-2,-1
278113879452,0,-1,-1,-1,-1,-1,1,-1
278113879452,-2,-1,-1,2,1,0,0,-1
278113880954,-1,0,-1,-2,-1,0,-1,-1
278113880954,1,-2,-1,-1,-3,-2,0,-2
278113893649,-2,0,0,1,-1,0,-2,-1
278113893649,0,0,-2,-3,0,-1,0,0
278113900449,-1,-2,0,1,-1,-2,0,-2
278113900449,-1,-2,-1,1,-2,-1,-2,-2
278113916185,-2,-1,-2,0,-2,0,0,-1
278113916185,0,-1,0,-1,-2,-2,0,1
278113923132,-1,0,-1,-3,1,0,-1,1
278113923132,-1,-2,-1,-2,0,0,-2,1
278113939552,1,1,0,-1,-1,0,-3,-1
278113939552,-1,0,0,-2,0,0,-1,-2
278113940938,-1,-2,-1,-1,-2,-1,-1,-2
278113940938,1,-1,0,1,1,1,0,-2
278113953776,-1,-2,-3,0,-1,-2,1,1
278113953776,-1,-2,-1,0,-1,-1,-1,0
278113960500,0,0,1,2,-1,-1,-1,1
278113960500,-2,0,-3,-2,-2,-1,1,-2
278113976298,-2,-3,-1,1,0,-3,-1,0
278113976298,-1,0,0,0,-1,-1,-1,0
278113982960,1,-1,-1,-2,-2,-1,-1,0
278113982960,0,-2,1,-1,-1,0,-2,0
278114006731,-1,0,0,-2,-3,-3,-2,-1
278114006731,-1,0,-2,0,0,-2,-1,-1
278114014441,-2,-2,0,2,0,-3,-1,0
278114014441,-2,0,0,2,1,-2,-2,-1
278114015085,0,-1,-2,-2,-2,-1,-1,-2
278114015085,0,-1,0,-2,-1,-1,-2,-1
278114020663,0,-1,-1,-1,1,-1,0,-2
278114020663,-2,0,-1,-1,2,-1,-1,0
278114036386,0,-1,-2,2,-2,0,-1,-1
278114036386,-2,-1,-3,-1,-2,0,1,-3
278114042967,-2,-1,-3,-2,-3,0,0,-1
278114042967,-2,-1,-1,0,-1,-1,-1,-2
278114059328,-1,-2,-1,-3,-1,1,-1,-1
278114059328,0,0,1,0,0,-1,0,-1
278114060956,-2,-1,1,0,-2,-1,0,-1
278114060956,-2,0,-2,1,0,-2,-1,-1
278114073678,0,0,1,-1,1,0,-1,-1
278114073678,-1,0,-1,-1,0,-2,0,-1
278114080470,0,-2,-2,-2,0,-1,0,1
278114080470,1,0,-2,-3,-3,-1,0,-1
278114096330,-3,-1,0,1,-1,-1,1,-2
278114096330,-1,0,-2,-2,-3,-1,-1,-1
278114103014,-1,-1,-2,-2,0,-1,-1,0
278114103014,-1,0,-2,0,-1,-1,-1,-2
278114119357,-2,-1,-1,-2,0,0,-1,-1
278114119357,-1,-1,-1,3,-2,1,-2,-1
278114120916,-3,0,-1,2,-1,-1,-1,-2
278114120916,0,-1,-1,-2,-2,-2,-1,0
278114133698,-2,-1,0,0,-1,0,-2,0
278114133698,-1,-1,-1,-1,-1,-1,0,1
278114140634,-1,1,-2,-2,0,-1,1,0
278114140634,-2,-2,-1,-1,-3,0,0,-1
278114156146,0,-2,-2,0,0,1,-1,-2
278114156146,0,-2,-2,0,1,0,1,-1
278114170436,0,-1,0,1,-1,0,-2,-2
278114170436,-1,-1,0,-1,0,-1,0,-3
278114179587,1,-2,-1,-2,0,-3,0,-1
278114179587,-2,-2,-1,-4,1,0,-1,0
278114180935,1,-3,-1,-2,1,-1,-1,-1
278114180935,0,1,-1,0,-1,-2,-1,0
278114193520,-2,-1,-2,0,-1,-2,0,1
278114193520,1,0,-3,-2,-2,-2,0,1
278114201952,-2,-1,-1,-1,-2,0,0,-1
278114201952,-1,-1,-1,-1,-1,0,-3,1
278114216396,-1,1,-2,0,-1,1,-1,-1
278114216396,-1,0,-2,0,1,-1,-1,-1
278114223077,0,-1,-2,-2,-1,-1,0,-1
278114223077,0,-1,-1,-1,-1,-2,-1,-2
278114239464,0,-1,1,-1,-1,-2,-1,-2
278114239464,0,1,1,-1,-3,0,-1,-1
278114240928,-1,-1,-3,1,-1,0,1,-2
278114240928,-1,-1,1,-1,2,-1,0,0
278114252977,1,-2,-1,-1,-1,-2,-1,-1
278114252977,-1,-1,-2,-1,0,-1,1,0
278114261989,-1,0,0,-2,0,-2,-2,1
278114261989,0,-1,0,-1,-3,1,-2,2
278114276149,-1,-1,0,1,-2,0,-1,1
278114276149,0,0,-2,-5,-2,0,0,0
278114282985,0,-2,0,-1,-1,0,0,1
278114282985,-2,-2,-1,-2,0,-2,-1,0
278114299442,0,1,-1,-1,-2,-1,-2,0
278114299442,-2,0,-2,0,-1,-1,-1,-2
278114300992,-1,-1,-2,-2,-3,-1,0,-2
278114300992,-2,-2,-1,1,-3,0,0,-1
278114321956,-1,-2,-3,0,0,-3,1,-1
278114321956,-3,-1,0,-1,-1,-1,0,0
278114323433,-2,0,-1,-3,-1,1,-1,-1
278114323433,1,0,-1,-1,-1,-1,1,-1
278114336218,-1,0,-1,-4,-1,-2,-1,-1
278114336218,-1,-1,0,-1,0,-1,0,-1
278114342983,-1,-1,-1,-1,0,-1,-2,-1
278114342983,0,-2,0,1,-1,0,-2,-1
278114359136,0,0,-1,-3,0,0,-2,-1
278114359136,0,-2,-3,0,0,-2,0,0
278114365660,-1,-1,-2,-2,-3,-1,0,-1
278114365660,-1,0,-2,-1,-2,1,-2,-1
278114373051,-1,-2,-3,0,-1,0,0,0
278114373051,-1,-1,-1,-2,-1,1,-3,-2
278114382079,0,-2,-1,0,-1,-2,-1,-2
278114382079,-1,-3,-2,1,-1,-3,-1,0
278114396302,0,0,-1,-2,-2,-1,-1,-1
278114396302,-3,0,-1,0,-1,-1,-2,-1
278114402981,-2,0,0,-1,-3,0,-1,-1
278114402981,-1,0,1,2,-2,0,0,-1
278114419459,-1,0,0,0,1,1,-1,-2
278114419459,1,-2,-2,3,1,-1,-1,-1
278114420979,0,1,1,-1,-1,-1,-1,-1
278114420979,0,-1,-1,-2,2,-1,0,-1
278114433091,-2,-1,0,-3,-4,0,-1,-1
278114433091,1,0,-1,-4,-2,0,-2,-1
278114441995,-1,-2,-2,0,1,-2,-1,1
278114441995,-2,-1,0,0,-1,-3,-1,-1
278114456153,-2,-1,-1,1,2,-2,1,0
278114456153,-2,-5,0,0,0,-1,0,0
278114463087,1,-1,1,-1,-2,1,1,0
278114463087,1,1,-1,-1,-3,-1,-1,-2
278114479440,0,0,-2,-1,-2,-1,-1,-1
278114479440,0,0,-2,-2,-3,-2,0,-1
278114480905,-1,0,-1,0,1,-2,-3,0
278114480905,0,0,2,-2,-2,0,-3,0
278114492926,-1,-1,0,-1,0,-1,0,-1
278114492926,-2,0,-1,0,-1,0,0,0
278114501910,-1,-2,-2,-3,0,0,0,-1
278114501910,-1,0,-1,0,0,0,-1,0
278114516196,0,-2,1,-1,-1,-3,-1,-1
278114516196,0,-3,0,-2,-1,-1,-1,-2
278114523100,-2,-1,-3,0,-1,0,-1,-1
278114523100,0,-2,1,1,-2,0,-1,-1
278114539404,0,-1,0,-1,-1,1,1,-1
278114539404,-3,-1,-3,-1,1,-3,0,2
278114540939,-2,-1,0,0,-2,-2,0,0
278114540939,0,-2,-1,0,0,-1,0,-2
278114553178,-1,-2,0,1,-1,-1,-1,-1
278114553178,0,1,-2,1,-3,0,-1,-1
278114561942,1,1,-3,-2,-2,-1,0,-1
278114561942,-1,0,-2,-1,-1,-2,1,-1
278114576683,0,-1,-1,-1,-2,-2,-1,-1
278114576683,0,0,-1,-3,-2,-1,-1,-2
278114584515,-2,-2,0,-2,-2,2,-2,-1
278114584515,-2,-2,1,-2,0,1,1,0
278114598682,-3,-2,-2,-1,0,-2,-2,0
278114598682,-2,-1,-1,-2,-1,0,-1,-1
278114605570,0,-2,-2,1,0,-1,-2,0
278114605570,-1,-2,-2,-1,-1,-1,-2,-2
278114612909,-1,-2,-1,0,-1,1,1,2
278114612909,-2,-1,0,0,1,-1,0,-1
278114621942,0,0,0,-1,-1,-2,1,-3
278114621942,-2,-1,-2,0,-1,1,0,-1
278114637001,-1,0,-1,0,-3,-1,-2,-2
278114637001,-3,-2,-2,-2,0,1,-1,0
278114642930,-1,-1,-1,-2,-1,0,-2,-1
278114642930,-2,-1,0,0,-1,-2,1,-1
278114658683,2,0,-1,0,-1,-1,-2,0
278114658683,-1,0,0,1,0,-2,0,0
278114665606,-1,-1,0,1,0,-1,-1,-1
278114665606,-1,-1,0,1,-1,0,-2,-1
278114673129,-2,-2,-1,0,2,-1,0,-3
278114673129,1,-1,-2,-1,-2,-2,0,-2
278114681944,0,0,0,-1,1,0,0,-2
278114681944,-1,0,-1,-1,-2,-2,-1,-2
278114696260,-2,-1,-1,-3,0,0,-1,0
278114696260,0,0,0,-1,0,1,-1,0
278114702962,-1,-1,0,-2,-2,0,-3,0
278114702962,1,-1,-1,-1,-1,-1,1,0
278114718797,-2,-2,-1,-2,-2,-1,-2,-1
278114718797,-1,-1,-1,-2,-1,-2,-2,-1
278114725460,-1,0,-2,0,-2,-1,-1,-1
278114725460,0,-1,1,0,-1,0,-3,-1
278114741822,-3,0,0,-1,-1,-1,0,0
278114741822,-1,-1,-2,-1,0,-1,0,0
278114743468,-1,-2,-1,-1,-1,1,0,0
278114743468,-2,-2,-2,0,0,0,-2,-2
278114756664,1,-1,1,-1,-2,-1,-1,-2
278114756664,-1,-1,-2,-1,-1,-2,0,0
278114762972,-1,-1,0,-1,0,-2,0,-1
278114762972,1,1,-1,-1,0,0,-3,-1
278114778775,-1,0,-1,-1,-3,-1,-1,0
278114778775,0,0,-2,0,-1,0,-1,-2
278114785565,-2,-2,-1,-2,-1,-2,-1,1
278114785565,-2,-1,-1,-1,-1,-1,-1,-2
278114809271,1,-1,-1,-1,0,0,-1,-1
278114809271,-1,0,-1,-2,0,-1,-1,0
278114810936,-1,-1,-4,-1,-1,-1,-1,-1
278114810936,-2,-2,-1,-2,-1,0,0,-1
278114816298,0,-1,-1,-1,-1,0,-1,-1
278114816298,-1,-3,0,-1,0,-1,1,0
278114823065,-2,-2,-1,1,-1,0,-1,-1
278114823065,0,-1,-2,1,0,-1,0,0
278114838738,-2,-1,0,0,1,-1,0,-1
278114838738,-2,-1,-2,-2,-2,1,-1,-1
278114845480,0,-1,0,-1,-2,-2,-1,-2
278114845480,-2,-1,-1,-2,-1,0,0,0
278114861921,0,1,-1,-2,0,0,0,0
278114861921,-2,-2,0,-1,-1,-1,-2,0
278114863534,1,-2,0,-1,-2,-2,-2,-1
278114863534,-2,-1,0,-1,-2,-1,0,0
278114876155,-2,-1,0,0,-1,-1,-2,0
278114876155,0,-1,-1,1,-2,-2,-1,-1
278114883039,1,-1,0,-1,-1,-1,0,-2
278114883039,0,-3,-1,-1,1,0,0,0
278114898825,-1,-1,-1,0,-1,1,0,0
278114898825,1,0,-1,-1,0,-1,-2,0
278114905505,1,0,-3,-3,0,-1,-1,-1
278114905505,-1,-1,-1,-1,-2,-1,-1,-1
278114920907,1,-1,-2,0,-2,0,-1,0
278114920907,-3,-3,-1,0,-1,1,0,-1
278114929416,-1,0,-1,0,1,-1,-2,1
278114929416,0,0,-1,1,0,-2,-1,-1
278114936323,-1,-2,-1,1,0,-2,-2,-2
278114936323,0,-2,-1,-1,1,-2,0,0
278114943027,-2,-1,0,-1,-1,0,1,-2
278114943027,-2,-2,0,-4,0,0,-1,-2
278114958675,-1,-3,-2,-2,0,-2,0,0
278114958675,1,0,0,0,-1,-1,-1,-1
278114965418,-2,-3,-2,-1,0,0,-2,0
278114965418,0,0,-1,1,-1,-1,-1,-1
278114982070,0,1,-2,0,-2,0,-2,0
278114982070,-1,-2,-1,-2,-1,0,-1,-1
278114983445,-2,-2,1,0,-1,-2,-2,0
278114983445,0,0,-1,0,-2,-2,-3,-2
278114996320,-2,0,-2,-1,0,-2,0,1
278114996320,-1,-1,0,-3,-3,0,1,-1
278115002889,1,0,-1,-1,-2,1,-1,-2
278115002889,0,-3,0,-1,-1,-1,-2,0
278115018649,-1,-1,1,-1,-1,-1,-1,-1
278115018649,-2,-1,-3,1,-2,-2,-1,0
278115025487,-1,-2,0,-1,-1,-1,2,-1
278115025487,-1,0,0,-2,1,-1,-1,0
278115041853,-1,0,0,-1,-1,-1,1,1
278115041853,-1,-1,-2,-1,1,0,-1,-1
278115043500,-2,0,-1,-2,-1,-1,-3,-2
278115043500,0,-2,-2,-1,0,1,0,-1
278115056154,1,-2,-2,-1,0,-1,0,-1
278115056154,-1,-1,0,-1,0,-3,-1,-2
278115063020,-2,-3,0,1,-1,0,0,1
278115063020,-2,1,0,0,-2,0,-1,0
278115078664,-2,-2,0,0,0,0,-1,0
278115078664,-1,-2,-1,-1,-1,-1,-1,-2
278115085488,1,1,-1,-3,-1,-1,0,0
278115085488,0,-1,-1,-2,-1,0,-1,1
278115101784,0,-1,-1,-1,-3,-2,1,0
278115101784,-1,0,-1,0,-1,1,-2,0
278115103349,-2,-1,-2,1,1,-1,-2,-3
278115103349,0,0,0,-1,-1,0,3,-1
278115116078,-2,0,-3,-1,2,0,-2,0
278115116078,1,-1,-2,-1,0,1,-1,-1
278115123136,1,0,0,-2,-1,0,1,0
278115123136,-2,-1,0,-1,1,-2,0,-2
278115146830,-1,-2,0,-2,1,-2,-1,-1
278115146830,-1,-1,-1,-1,0,-2,0,0
278115148370,-2,-1,-2,0,-1,-2,-1,-1
278115148370,0,-1,0,-1,-3,-2,-1,-1
278115161974,-1,0,-3,-2,-3,-1,0,0
278115161974,-1,-2,-1,-2,1,2,-3,0
278115163406,0,-1,0,1,0,0,0,-3
278115163406,0,-2,1,0,-3,-1,-2,-3
278115176118,0,-2,-1,1,-2,-1,-2,-3
278115176118,-2,0,0,0,-1,-1,0,0
278115182960,-2,-3,-3,-1,0,0,-1,1
278115182960,-1,-3,-2,0,0,-1,-1,0
278115206989,-1,-1,-2,0,-1,1,-1,0
278115206989,-2,-1,-1,-2,-1,0,0,-2
278115208402,-1,0,-2,0,-1,-4,-1,-1
278115208402,1,0,-2,1,1,-3,-1,-1
278115222452,0,0,0,0,-2,-2,0,-1
278115222452,0,0,-2,1,-3,0,-1,0
278115224053,-1,-1,-1,0,-3,1,-1,-1
278115224053,-1,-1,-1,-2,-1,2,-1,0
278115235437,-1,-1,-2,0,0,0,1,-1
278115235437,1,-1,-1,-2,0,-2,0,-1
278115244439,-1,-2,-3,-1,-2,-2,-1,0
278115244439,-2,-2,-1,0,-1,-1,-1,0
278115258665,-2,-1,-1,-2,0,1,-2,-2
278115258665,-2,-1,-1,1,-2,0,-1,1
278115265526,0,-1,0,-1,0,0,-2,-1
278115265526,1,-3,-1,-2,-1,1,0,0
278115281818,-1,0,-2,1,1,0,-1,-1
278115281818,-1,-3,-2,0,1,-1,-1,-1
278115283431,-2,-2,-1,0,0,-3,-1,-2
278115283431,-2,1,-1,-2,-1,-3,0,0
278115295487,0,0,-1,-4,-1,-3,-2,0
278115295487,0,-1,-1,-1,0,-1,0,-2
278115310552,0,0,0,0,-1,0,-1,-2
278115310552,-2,-1,0,0,-1,-2,-2,-3
278115318773,0,-1,-1,-1,-3,-3,-2,-2
278115318773,0,0,-1,-3,2,-3,-1,-1
278115325443,-2,0,-2,-1,-1,1,0,0
278115325443,-1,0,-2,0,-2,-1,0,-2
278115341843,-1,-1,-1,-1,0,0,0,-1
278115341843,-2,0,-1,2,-3,-2,0,-2
278115343385,0,-4,0,-2,-3,0,0,0
278115343385,-1,0,0,-2,-2,-1,-1,0
278115364346,-2,0,-2,0,0,-1,-2,1
278115364346,1,-1,-2,-1,0,-1,1,0
278115365956,-1,-1,-1,-2,0,-1,-1,-2
278115365956,-2,0,-1,-1,-1,0,-1,-2
278115378641,-1,-1,0,-1,0,1,-1,0
278115378641,-1,0,-1,-1,-1,-1,-1,0
278115385562,-1,-1,-1,0,-1,0,0,-2
278115385562,0,0,0,1,-1,-1,-1,-1
278115401840,0,-2,0,-1,-2,-1,-1,-2
278115401840,-1,0,-3,-2,0,-1,-1,0
278115403391,0,1,-1,0,-1,0,0,0
278115403391,-1,-2,-3,-2,-1,-3,0,-1
278115415496,-1,-1,-1,0,0,0,1,-1
278115415496,-1,-1,0,-2,0,-2,0,0
278115424458,-2,-2,-2,-2,-1,-2,-2,1
278115424458,0,-1,-2,-1,-3,0,-1,2
278115438703,-2,-2,-1,-1,-2,-1,-1,-1
278115438703,-1,-3,-1,-1,-2,-2,0,-2
278115445419,0,0,0,-1,-2,1,-2,-1
278115445419,1,-1,-1,-1,2,-2,-1,-2
278115461980,-1,0,-2,-1,2,0,0,-1
278115461980,0,-2,-2,0,-2,1,-1,-1
278115463413,-1,-1,0,-1,-2,-1,-2,0
278115463413,0,0,-1,-1,-3,-2,-2,0
278115475444,-1,0,-2,-3,-1,-1,0,-1
278115475444,-1,-1,-1,-1,0,-3,-2,0
278115484480,0,-1,-1,-1,-1,-2,-1,-2
278115484480,0,-2,-2,0,0,1,-1,0
278115498658,-1,-2,0,0,0,-2,-2,-1
278115498658,-2,0,-1,1,-2,1,-1,-2
278115505456,-2,-2,-1,1,0,-2,0,0
278115505456,-2,-1,-1,1,-3,-3,-1,0
278115521262,0,-1,-1,0,1,0,-1,0
278115521262,-1,-1,0,-1,-1,-1,-1,-2
278115528083,-1,0,0,0,0,-2,0,-2
278115528083,-1,-1,-3,-2,0,-2,1,-1
278115535549,-1,-1,-3,-2,-2,-2,1,1
278115535549,-1,0,-2,0,-3,-3,-1,-3
278115544438,-2,-2,-1,1,1,-1,-4,-2
278115544438,1,-1,-1,-1,1,1,-1,1
278115558644,-1,0,0,-2,0,0,-1,0
278115558644,0,-1,-2,-1,-2,1,1,1
278115565602,-1,-1,-2,-3,-3,-1,-2,-1
278115565602,-1,-3,0,-2,0,-2,-2,-2
278115581524,-2,-2,-1,-1,-1,-2,-1,0
278115581524,-2,-1,0,0,1,0,-1,-1
278115589437,-1,0,1,-1,-1,0,1,-1
278115589437,-1,0,-1,0,-1,1,0,-2
278115595480,0,1,0,-1,-1,0,-1,-1
278115595480,-1,0,-2,-1,0,-1,0,0
278115604464,0,0,-1,0,-2,0,1,1
278115604464,-1,-1,-1,-1,-1,-1,0,-1
278115619261,-2,-2,-2,-1,-3,-3,-1,0
278115619261,-2,-2,-2,-2,-3,-4,-3,-1
278115625462,0,-1,-2,-3,1,0,0,-2
278115625462,0,0,0,-3,-1,0,-1,-1
278115641124,-1,-1,-1,-1,-3,2,-2,1
278115641124,-1,0,-3,-1,1,2,-1,0
278115647988,0,0,-1,1,-1,-3,0,-1
278115647988,1,0,-1,1,0,-1,0,-1
278115655537,-1,-1,-2,-1,1,-1,0,0
278115655537,-2,-1,0,1,-2,1,0,0
278115664473,-1,0,0,1,2,-2,-2,0
278115664473,-1,-1,-1,-2,-3,-1,-1,-1
278115678757,-1,-2,-2,-1,-1,-1,0,-3
278115678757,0,-1,-2,-1,1,-2,0,-1
278115685465,-1,-1,-1,-1,-1,-2,0,0
278115685465,-1,-1,-1,0,0,-1,-1,1
278115700895,0,0,-1,1,0,1,0,0
278115700895,0,-1,0,-3,-4,-3,-2,-1
278115709436,0,-3,0,-2,-3,-1,-2,-1
278115709436,-1,-1,-1,-2,0,-1,-1,-1
278115724403,-2,-1,0,-2,-1,0,-1,0
278115724403,1,-1,0,1,-1,1,-1,-2
278115725879,0,-1,0,-3,-2,-3,-1,0
278115725879,-1,0,-1,-1,-1,-3,-2,-2
278115738742,-2,0,0,0,1,0,-1,-1
278115738742,-1,-1,0,0,1,1,1,1
278115745494,0,-1,0,-2,0,1,-1,0
278115745494,-2,-1,0,-2,0,-1,-2,-1
278115761328,0,-3,-2,1,0,-1,0,-2
278115761328,-1,-2,0,-1,0,0,-1,0
278115768132,-2,-1,-1,1,-1,0,-1,-3
278115768132,-1,-1,-1,-1,0,-1,0,-1
278115784280,0,-1,-2,-3,-4,-4,-3,-1
278115784280,-1,0,-3,0,-2,-1,1,-1
278115785966,0,0,-2,-1,-1,1,-1,-1
278115785966,-1,1,-1,1,0,0,-1,-3
278115798693,-1,-1,-1,-2,0,-1,0,-1
278115798693,0,-2,-2,-2,1,-3,-2,0
278115805558,0,-1,1,-1,-1,-3,-1,1
278115805558,-1,-2,-1,-1,-1,0,-1,-1
278115821538,-1,0,-1,-1,0,2,0,0
278115821538,-1,0,-1,-1,-2,1,0,0
278115829425,0,-1,0,-1,-5,0,0,-2
278115829425,0,0,-1,-2,-2,-1,-2,-2
278115844271,-1,-1,0,-3,-1,-2,-1,2
278115844271,0,-1,0,-1,0,-3,-1,-1
278115845927,0,-2,-1,1,2,-1,0,0
278115845927,-1,-1,-2,0,0,0,1,-2
278115858612,-1,-1,-1,-2,-1,-1,-1,0
278115858612,0,-1,0,-2,0,-3,-3,0
278115865455,-1,-2,-1,-1,0,-1,-1,0
278115865455,0,-1,0,-1,-2,0,-2,-1
278115881107,0,-2,-2,-1,-2,1,-2,-1
278115881107,0,-2,-2,1,-2,1,-1,0
278115888026,-1,-2,-1,-1,-2,-1,-1,-1
278115888026,-2,-1,-2,1,-1,-1,-1,0
278115904285,-2,0,-2,-1,0,-1,1,-1
278115904285,0,-1,-1,-1,2,0,0,0
278115905934,-1,-2,-1,1,-2,-2,-1,-1
278115905934,0,-1,-2,-4,-2,-1,-1,-1
278115918783,-1,-1,-1,-2,0,-1,-2,-1
278115918783,-3,-1,1,-2,-2,0,-2,0
278115925438,-1,-2,0,-1,0,-2,-2,-2
278115925438,0,-1,-1,-1,0,-1,-2,-1
278115941350,-1,1,-1,-1,-2,-1,-1,-1
278115941350,-1,-1,-2,-2,-1,-2,-1,-1
278115947984,-2,-1,-2,0,-1,0,-1,0
278115947984,-2,-3,0,1,0,-3,-1,-2
278115964355,-1,-2,-2,0,-1,0,-1,0
278115964355,-2,-2,-3,-1,0,0,1,-3
278115965901,-1,-1,0,0,-1,0,-1,-3
278115965901,-1,-1,0,-1,-1,-1,-2,-1
278115978673,0,-2,-3,0,0,-2,-3,0
278115978673,-1,1,-1,0,-4,0,-1,0
278115985396,0,-3,-2,-1,-4,-2,0,-2
278115985396,-1,1,-1,0,0,1,-3,-1
278116001178,0,-1,-2,-1,-1,-2,-1,0
278116001178,-1,0,-1,-1,0,-1,0,0
278116007917,0,1,0,-1,1,-1,1,-1
278116007917,0,-1,-2,0,0,-1,0,-2
278116024359,-1,-2,-1,0,0,-1,0,0
278116024359,-1,-1,0,0,-2,-1,-2,-2
278116025972,-1,0,-2,0,0,2,1,0
278116025972,-2,-1,-1,-1,-2,-1,1,1
278116038743,-1,0,-1,-2,-1,-1,-1,0
278116038743,-1,-2,-1,-1,-1,-3,-3,0
278116045454,-1,0,1,-1,-1,-2,-1,-1
278116045454,-1,-1,0,0,-2,-1,0,-1
278116061261,-1,-1,-2,-3,1,1,-2,-2
278116061261,-1,-2,1,0,1,-1,-1,0
278116067940,-1,-1,-2,-1,-2,0,-1,-1
278116067940,-2,-2,-2,-2,-2,-1,2,-2
278116084818,0,-2,0,0,-2,-2,0,-1
278116084818,-1,-1,-2,0,-3,1,0,0
278116086383,-2,-1,-1,1,-1,-2,-1,0
278116086383,-1,-1,0,0,1,-1,0,1
278116098734,-2,-1,-1,-2,-1,-1,-1,-1
278116098734,0,2,-2,-1,-1,0,-1,-1
278116105404,0,-1,0,0,-1,-2,-1,-2
278116105404,0,0,-3,-2,-1,-2,0,0
278116121702,-1,-1,0,-1,-2,-1,0,-1
278116121702,-1,-2,-1,1,-1,2,-1,-1
278116127953,-1,-2,1,-3,-1,1,-1,-1
278116127953,0,0,-2,0,-1,0,0,-2
278116144281,0,-1,0,-1,0,0,0,0
278116144281,-1,0,-1,-1,-1,-3,0,-2
278116145945,-1,0,-1,-1,0,-2,-2,-1
278116145945,-2,0,0,-1,-3,-1,-2,2
278116158677,-1,-1,-1,-2,-4,0,0,-1
278116158677,0,-1,0,-3,-1,-1,0,-2
278116165541,-1,-1,-1,0,1,-1,0,0
278116165541,-1,0,0,-3,-1,1,-2,-1
278116181207,-3,0,-2,1,0,-2,-2,0
278116181207,-1,-4,0,-1,-3,0,-1,-1
278116187932,1,0,-1,1,-2,0,1,0
278116187932,0,-2,-2,-1,0,0,0,-1
278116204391,-1,-1,-2,1,2,2,0,-3
278116204391,0,0,-2,-1,0,-2,-1,-1
278116205910,0,-1,-2,-1,-2,0,-1,-1
278116205910,-1,0,-1,0,-2,-2,-2,-1
278116218081,0,0,-1,-2,-1,-3,0,0
278116218081,-1,-2,-1,0,1,0,0,-1
278116226940,-1,-1,-1,-1,-2,-1,0,-3
278116226940,-1,-1,1,-1,-2,0,0,-1
278116241195,-1,0,-1,0,0,0,-3,0
278116241195,-1,-1,-1,-1,1,-1,-1,0
278116247974,-1,-3,-3,-1,-1,0,-1,-1
278116247974,-2,-3,-3,0,-1,-1,-1,-1
278116263545,-1,0,-1,-2,-1,-1,-2,-1
278116263545,0,0,-2,-2,-2,0,0,1
278116271933,-1,0,1,1,-2,0,-1,0
278116271933,-1,-1,-2,-2,0,0,-1,0
278116278044,-1,-1,-1,0,-3,-2,0,0
278116278044,0,1,0,0,0,0,0,-2
278116286938,0,-2,-1,-2,-2,-3,-1,0
278116286938,0,-1,-1,-3,-1,-1,-1,0
278116309099,1,-1,-1,-2,0,-1,-1,0
278116309099,-2,-1,0,-1,2,1,0,-1
278116315485,-2,-1,0,-1,0,1,0,-1
278116315485,0,0,0,0,-2,1,0,-1
278116324287,0,-3,-3,-2,-3,0,-2,-1
278116324287,-2,0,-2,-1,-1,-1,-1,-1
278116325876,1,0,0,-1,-2,-1,-1,-1
278116325876,-2,-2,-2,0,2,-1,-1,0
278116338052,-1,0,0,0,1,0,-1,-1
278116338052,0,-1,-2,-1,-2,-2,-2,-1
278116346995,-1,1,0,-2,-1,-3,-1,-2
278116346995,-1,-1,-1,-2,-3,-1,-2,-1
278116361254,0,0,-1,-2,-1,-1,-2,0
278116361254,-2,-3,-1,-1,-1,0,-2,-1
278116368035,-2,-1,-1,1,0,0,-1,0
278116368035,-2,-1,-1,0,0,-1,2,-2
278116384330,-3,-2,0,0,0,0,0,-3
278116384330,0,-1,-1,-2,-4,-2,0,0
278116385905,0,-2,2,-1,-1,-1,-2,-3
278116385905,0,-1,-2,-1,1,0,-2,-1
278116398067,-1,-1,-2,0,0,-2,-2,-1
278116398067,-1,-1,0,0,1,-1,0,0
278116406940,-1,0,-1,-1,-2,-1,-2,1
278116406940,-1,0,0,-1,-1,-2,0,-1
278116421228,-1,0,-2,-3,-1,-2,0,-1
278116421228,-1,-1,-1,-2,-1,1,0,-1
278116428001,0,-1,-2,-1,-1,-1,-1,0
278116428001,-1,1,-2,-3,-2,-4,-3,-1
278116444287,0,-2,-1,0,-3,-3,-1,-2
278116444287,0,-3,-2,0,-1,-2,-1,0
278116445921,0,-1,2,0,0,3,0,-2
278116445921,0,-1,-2,2,1,-1,0,-1
278116457950,-1,-1,-1,-1,-1,0,0,0
278116457950,0,-1,-1,0,-1,0,-2,-1
278116466914,-1,-1,-1,-1,-1,-3,-2,-3
278116466914,0,-1,-3,-2,-2,-1,-2,-3
278116481102,0,-1,-2,-2,1,-2,-1,-2
278116481102,0,-1,-1,0,0,-1,-1,0
278116487942,-1,-1,-2,-1,-2,-1,-1,2
278116487942,-2,-2,1,-4,0,0,-1,-2
278116503656,-3,-1,-1,-1,-1,0,-2,1
278116503656,-1,0,1,-1,-3,0,-1,0
278116510416,-1,0,-2,0,-2,-1,-2,-1
278116510416,0,-1,-1,1,0,-1,0,1
278116518007,0,-1,0,-2,-1,-2,-2,-1
278116518007,-2,0,-2,0,-1,-1,0,-2
278116526956,-2,0,0,0,1,-2,-2,-2
278116526956,0,-1,-1,-1,0,1,-1,-2
278116541132,0,1,0,-1,1,0,0,-1
278116541132,-2,-1,-1,1,-1,-1,-1,-2
278116548076,-1,0,-2,-2,0,-2,1,0
278116548076,0,-1,-1,0,-2,-2,2,0
278116563840,0,1,-3,-1,-1,-4,-1,1
278116563840,0,-1,-1,-3,0,-2,-3,-4
278116578677,0,0,-2,-2,0,0,-1,-1
278116578677,-2,-1,-1,-3,-2,0,-1,0
278116579353,-1,-3,-2,0,-2,2,0,-1
278116579353,-1,1,0,-1,-2,-1,-2,0
278116586959,-1,-1,-1,-2,-2,-2,0,0
278116586959,-2,1,-2,0,1,-1,-1,0
278116601139,-2,-2,0,-1,-1,-1,-1,0
278116601139,0,-1,-1,-3,-1,-2,-1,0
278116607896,0,-2,0,-1,-1,0,-2,-1
278116607896,-1,-1,-1,2,1,-1,-1,0
278116623804,-1,-1,-2,-1,0,0,-2,-1
278116623804,0,-1,-2,-2,-2,0,0,-4
278116630440,-1,-1,-1,-1,-2,0,1,-1
278116630440,-1,0,-1,-2,-1,-3,-1,-2
278116637952,-2,-2,-1,-2,0,-2,-1,-2
278116637952,-2,-2,-1,0,-2,-1,-1,-2
278116646947,0,-1,-1,-1,0,-2,-2,-1
278116646947,0,-2,0,-1,0,2,-1,-1
278116661317,-1,0,-1,1,1,0,-1,1
278116661317,1,-1,-1,0,1,-4,-1,1
278116667950,-1,0,0,-2,-1,-1,-1,-1
278116667950,-2,-1,-1,-3,-1,1,-2,0
278116683682,-1,0,0,-1,-2,-1,0,-2
278116683682,-1,0,-1,-1,-3,-1,-1,0
278116690512,-1,-1,-1,-2,-1,-1,-1,-1
278116690512,0,-3,-1,-2,0,-1,0,0
278116706971,-2,-3,0,-2,0,2,0,1
278116706971,0,-1,1,-1,1,0,0,0
278116708396,-1,0,-1,-1,-1,0,0,1
278116708396,-2,1,-1,-1,-3,-3,-3,-1
278116721264,-1,0,-2,-2,-2,-2,-1,-2
278116721264,0,-3,-1,-1,-1,0,0,0
278116728080,-2,-2,-2,0,-1,-1,0,-1
278116728080,-2,-1,-2,1,-1,0,0,0
