timestamp,x,y,z
278109190476,1.5625,-0.4375,1
278109213344,3,-0.8125,1
278109228362,3,-0.8125,0.625
278109251875,1.375,-0.3125,0.1875
278109281267,0,0.0625,0
278109288315,0.0625,0.3125,-0.3125
278109342669,0,0.1875,-0.4375
278109344746,0.125,0.125,-0.125
278109365692,0.5625,-0.1875,0
278109372398,0.6875,-0.375,-0.1875
278109401335,0.25,-0.25,-0.375
278109412193,-0.5625,-0.125,-0.375
278109432284,-0.6875,-0.0625,-0.1875
278109468118,-0.5,-0.0625,0.125
278109478340,0.0625,0,0.3125
278109492018,0.8125,-0.25,0.4375
278109513070,1,-0.3125,0.1875
278109529571,0.625,-0.0625,0.0625
278109560216,0.1875,0.0625,0.125
278109573049,0.125,-0.0625,0.1875
278109589641,0.3125,-0.3125,-0.125
278109611964,0.875,-0.3125,0.125
278109641209,0.625,-0.1875,0.1875
278109649499,0.1875,-0.0625,0.0625
278109672250,0,-0.0625,0.0625
278109693058,0.4375,-0.125,0.0625
278109709470,0.875,-0.25,0.3125
278109732015,0.875,-0.25,0.375
278109753106,0.625,-0.1875,0.375
278109769531,0.75,-0.1875,0.1875
278109798918,1.25,-0.3125,-0.1875
278109813292,1.3125,-0.375,0.0625
278109835529,0.9375,-0.1875,0.1875
278109851980,0.4375,-0.3125,0.0625
278109874491,0.3125,-0.1875,0.125
278109889534,1.0625,-0.25,0.0625
278109912020,1.8125,-0.3125,0.25
278109934520,2,-0.25,0.5625
278109949450,1,-0.25,0.625
278109971997,-0.125,-0.125,0.1875
278109994549,-0.1875,-0.0625,-0.125
278110015655,0.25,0,0
278110033427,0.4375,-0.125,0.1875
278110054465,0.0625,0,0.25
278110075553,0.0625,0,0.0625
278110092000,1,0,-0.125
278110114611,1.625,-0.25,0.1875
278110135725,1.625,-0.375,0.125
278110152060,1.625,-0.4375,-0.3125
278110174483,1.375,-0.5625,-0.5
278110195629,0.75,-0.5625,-0.875
278110212008,0.4375,-0.5625,-1.375
278110234950,0.375,-0.3125,-1.0625
278110256947,1.625,0.1875,0.0625
278110273573,1.25,0.0625,0.125
278110294464,-0.5,0.125,0
278110315674,-0.375,-0.125,0.3125
278110332021,0.0625,-0.4375,0.125
278110354487,0.75,-0.5,0
278110375546,0.875,-0.375,0.25
278110400167,1.4375,-0.3125,0.0625
278110414488,2,-0.3125,0.1875
278110435693,2.6875,-0.4375,0.375
278110451990,3.125,-0.5625,0.5
278110483476,3.1875,-0.4375,0.375
278110495540,2.5625,-0.25,-0.1875
278110511909,2,-0.25,-0.1875
278110534494,1.875,-0.1875,0.0625
278110555538,1.4375,-0.0625,0.1875
278110572005,1.625,-0.1875,0.25
278110595989,1.9375,-0.375,0.0625
278110615679,1.5,-0.4375,-0.125
278110632209,0.75,-0.4375,-0.625
278110654563,0.1875,-0.1875,-0.875
278110677659,0.3125,-0.125,-0.8125
278110691199,0.375,0,-0.6875
278110713857,1.375,0.0625,-0.1875
278110736299,2.875,-0.25,0.3125
278110750955,3.1875,-0.5,0.5625
278110773718,2.0625,-0.5,0.375
278110796173,0.625,-0.4375,0.125
278110811159,1.125,-0.375,0.25
278110841231,1.0625,-0.4375,0.0625
278110856192,0.125,-0.5625,0.1875
278110871190,0,-0.1875,0.3125
278110893700,-0.0625,-0.25,0.375
278110924460,0.3125,-0.1875,0.375
278110931196,0.8125,-0.3125,0.5625
278110953706,0.75,-0.375,0.4375
278110976668,0.375,-0.5,0.4375
278110994142,-0.625,-0.625,0.1875
278111013818,-1,-0.8125,0.125
278111036365,-0.8125,-0.9375,0.75
278111052740,-0.0625,-0.875,1.125
278111073831,0.625,-0.6875,1
278111096182,0.4375,-0.375,0.75
278111118595,0.0625,0,0.5625
278111133687,0.625,0.3125,0.375
278111157619,1.1875,0.4375,0.6875
278111172672,1.625,0.375,0.8125
278111193698,1.25,0.375,0.5625
278111216865,0.3125,0.125,-0.0625
278111232714,0.1875,0.125,0.125
278111253734,0.0625,0.0625,0.375
278111276229,-0.25,0.25,0.25
278111292689,-1.1875,0.125,0.1875
278111313867,-1.8125,0.4375,0.5
278111343678,-1.75,0.3125,0.5625
278111352703,-0.75,0.3125,0.6875
278111373894,0.4375,0.25,0.8125
278111396241,1.125,0.0625,1.0625
278111413212,1.0625,-0.0625,1.0625
278111433775,0.9375,-0.375,0.9375
278111457651,1.1875,-0.4375,0.75
278111478781,1.625,-0.5,0.8125
278111494537,1.875,-0.5,0.6875
278111516194,1.6875,-0.5625,0.5
278111532635,1.125,-0.4375,0.1875
278111553722,0.6875,-0.3125,0.0625
278111576371,0.5,-0.125,-0.3125
278111591968,0.25,0.0625,-0.25
278111613716,0.1875,0.125,-0.25
278111636310,-0.0625,-0.0625,-0.125
278111651949,-0.1875,0,0.125
278111673815,-0.25,-0.25,0.375
278111703856,-0.0625,-0.375,0.5
278111718855,0.0625,-0.4375,0.375
278111733700,0.5,-0.25,0.1875
278111756167,0.875,-0.1875,0
278111772110,0.625,-0.25,-0.125
278111793890,0.4375,-0.375,0.0625
278111817650,0.5,-0.375,0.0625
278111832181,0.8125,-0.25,0
278111853717,1.125,-0.1875,-0.0625
278111876380,0.6875,-0.125,-0.1875
278111898742,-0.6875,0.125,-0.1875
278111915155,-1.25,0.3125,-0.375
278111936199,-0.5,0,-0.125
278111952012,0.5625,-0.25,0.1875
278111982618,1.125,-0.375,0.3125
278111996192,0.75,-0.3125,0.1875
278112011932,-0.1875,-0.1875,0.0625
278112035605,-0.1875,-0.0625,-0.0625
278112056710,0.0625,0,-0.0625
278112071988,0.6875,-0.125,0.4375
278112095342,1.125,-0.5625,0.5625
278112116226,1.375,-0.6875,0.75
278112132033,1.375,-0.6875,0.8125
278112155571,0.3125,-0.4375,0.6875
278112177584,-0.3125,-0.3125,0.5
278112215720,-0.4375,-0.125,0.4375
278112218079,-0.6875,0.0625,0
278112237662,-1.1875,0.3125,-0.125
278112260097,-1.375,0.4375,-0.1875
278112275225,-1.3125,0.625,-0.125
278112296313,-0.875,0.5625,0.125
278112318718,0,0.25,0.1875
278112335193,1.0625,0.0625,0.3125
278112356206,1.6875,-0.0625,0.5625
278112378708,2.0625,-0.125,0.1875
278112395089,1.5625,-0.1875,-0.0625
278112416189,0.6875,0.0625,-0.125
278112438882,0.9375,0.125,-0.0625
278112455163,0.75,0.25,-0.125
278112476322,-0.125,0.375,0
278112498927,0.125,0.625,0.625
278112515130,0.625,0.1875,0.9375
278112536313,0.875,0,0.9375
278112560258,0.75,-0.25,0.8125
278112575153,0.0625,-0.5,0.8125
278112596345,0.1875,-0.4375,0.75
278112618850,0.5625,-0.5625,0.75
278112635186,1.5,-0.5625,0.75
278112656215,2.0625,-0.5625,0.75
278112678832,1.625,-0.5625,0.5625
278112694669,0.9375,-0.375,0.5625
278112716363,0.375,-0.25,0.375
278112740181,0.4375,-0.125,0.25
278112754485,0.0625,-0.125,-0.0625
278112776191,-0.4375,0,-0.1875
278112806202,-0.625,0,-0.25
278112814514,0.1875,-0.0625,-0.3125
278112836309,0.4375,-0.0625,0.3125
278112858649,0.4375,-0.25,0.0625
278112874503,1,-0.4375,0.3125
278112897415,1.1875,-0.625,0.4375
278112918673,1.25,-0.5,0.1875
278112934620,0.125,-0.4375,-0.1875
278112965172,0.125,-0.1875,-0.25
278112978856,0.6875,-0.0625,0.125
278112994475,1.5625,-0.0625,0
278113017569,1.75,-0.125,0.375
278113038628,1.75,-0.4375,0.375
278113054399,2.4375,-0.625,0.3125
278113078013,2.0625,-0.625,0.125
278113098581,1.5625,-0.5,0
278113114450,1,-0.5625,0.0625
278113137587,0.5625,-0.5,-0.1875
278113158648,1.1875,-0.4375,0
278113174378,1.25,-0.75,-0.0625
278113197562,1.125,-0.5,-0.125
278113218630,0.6875,-0.1875,-0.125
278113234392,0.4375,-0.125,-0.125
278113257648,0.375,0.1875,-0.1875
278113278638,-0.25,-0.1875,-0.25
278113294418,0,-0.375,-0.3125
278113317562,0.6875,-0.1875,-0.125
278113338621,0.8125,-0.25,-0.3125
278113354425,0.75,-0.5625,-0.5
278113377536,0.625,-0.9375,-0.3125
278113398651,1.375,-0.8125,-0.375
278113421159,1.75,-0.8125,-0.375
278113437563,1.3125,-0.4375,-0.1875
278113458661,1.375,-0.1875,-0.0625
278113481275,1.4375,-0.125,0.25
278113497588,1.875,0.125,0.4375
278113518853,0.8125,0,0.75
278113534442,1.0625,0.0625,0.5
278113565135,2,-0.3125,0.375
278113578822,2.0625,-0.625,0.125
278113594507,2.5,-0.4375,-0.5625
278113617609,1.8125,-0.125,-0.6875
278113646286,2.125,-0.125,-1.5
278113654544,2.5,0.25,-1.9375
278113677475,-0.3125,0.625,-1.1875
278113698781,-1.1875,-0.125,-1.125
278113714499,2.5,-0.875,-1.8125
278113737053,4.3125,-1.3125,-1.0625
278113758697,0.3125,-1.5625,0.25
278113774617,-3,-1.3125,0.5
278113797005,-2.3125,-1,0.1875
278113820176,0.4375,-0.625,0
278113834467,1.3125,-0.75,0.3125
278113856983,1.9375,-0.125,0.8125
278113880259,3.3125,0.0625,0.3125
278113894468,2.6875,0.375,-0.5
278113917170,1.25,0.75,-0.1875
278113940095,1.125,0.375,0.0625
278113954446,1.875,-0.25,-0.125
278113976902,2.75,-0.9375,-0.4375
278114007491,2.9375,-1.3125,-0.5625
278114016033,2.5625,-1.375,-0.5625
278114036981,1.6875,-1,-0.375
278114060271,1,-0.4375,-0.25
278114074617,-0.0625,0.25,0
278114096954,-0.375,0.5625,0.1875
278114120187,0.4375,0.5625,0.25
278114134550,0.5,0.1875,0.0625
278114156953,0.375,0.125,0
278114180127,0.5,-0.0625,0
278114201134,0.9375,-0.25,-0.125
278114216932,1.125,-0.375,0
278114240137,1.5,-0.5,0.3125
278114261172,1.6875,-0.5625,0.25
278114277136,1.5625,-0.4375,0.3125
278114300143,1.25,-0.25,0.4375
278114322598,1,-0.0625,0.625
278114337029,0.3125,-0.0625,0.5625
278114360048,-0.4375,0.1875,0.3125
278114381221,-0.25,0.125,0.125
278114396998,0.25,-0.0625,0.1875
278114420147,0.25,-0.125,0.1875
278114441244,0.125,0,-0.0625
278114457136,0.3125,-0.25,-0.0625
278114480121,0.5625,-0.1875,-0.0625
278114501288,0.75,-0.25,0
278114517143,0.875,0,0.1875
278114540186,1,-0.0625,0.1875
278114561297,1.125,-0.0625,0.0625
278114583813,0.875,-0.0625,0
278114599656,0.375,-0.1875,-0.1875
278114621312,-0.0625,-0.0625,-0.1875
278114637619,0.0625,0,-0.3125
278114659437,0.3125,0.0625,-0.25
278114681160,0.6875,0.125,0
278114697036,1.3125,0,0.125
278114719447,0.9375,-0.125,0.4375
278114742643,0.8125,-0.125,0.4375
278114757569,0.4375,-0.125,0.1875
278114779510,0.625,-0.125,0.1875
278114810237,0.9375,-0.125,-0.0625
278114816948,0.625,-0.3125,-0.125
278114839469,0.4375,-0.1875,0.125
278114862506,0.625,-0.1875,0.1875
278114877035,0.9375,-0.0625,0.125
278114899536,1.5,0.0625,0.125
278114928789,1.8125,0,0.1875
278114936948,1.5625,0.125,0.3125
278114959470,1.375,0.1875,0.25
278114982569,1,0,0
278114996951,0.1875,-0.25,-0.125
278115019432,-0.0625,-0.1875,-0.3125
278115042640,0.0625,-0.1875,-0.4375
278115057088,0.3125,0,-0.125
278115079609,0.5625,0,-0.0625
278115102547,0.625,0,0.0625
278115116971,0.1875,-0.1875,0.1875
278115147610,-0.0625,-0.3125,-0.25
278115162623,-0.0625,-0.1875,-0.5625
278115176971,-0.25,-0.125,-0.5625
278115207505,0.1875,-0.1875,-0.4375
278115223242,0.0625,-0.125,-0.4375
278115243654,0.125,-0.1875,-0.125
278115259482,0.5,-0.25,0
278115282595,1,-0.1875,0.25
278115304101,1.125,-0.125,0.25
278115319474,1.0625,-0.1875,0.125
278115342614,0.625,-0.3125,0.0625
278115365296,-0.0625,-0.125,0.0625
278115379466,0.5625,0.0625,0.125
278115402637,1.1875,-0.0625,-0.0625
278115423634,0.9375,0,0
278115439623,0.625,-0.0625,0.125
278115462497,0.8125,-0.125,0.1875
278115483683,1.25,-0.3125,0.125
278115499470,1.875,-0.1875,0.1875
278115521969,2.3125,-0.0625,0.125
278115543705,2.1875,-0.0625,0.25
278115559611,2.0625,0.25,0.1875
278115588784,3,0.3125,0.125
278115603720,4.25,0.25,-0.25
278115619965,3.75,0.125,-0.0625
278115641963,3.75,0.5,-0.3125
278115663696,4.1875,0.3125,-1.125
278115679495,3.6875,0.75,-1.625
278115708667,2.1875,1,-1.875
278115725094,1.1875,0.5,-2
278115739480,1.125,0.8125,-1.375
278115761992,1.8125,1,-1.5625
278115785110,2.1875,0.4375,-1.5625
278115799600,2.625,0.625,-0.875
278115828756,2.875,0.5,-0.375
278115845233,3.0625,0.125,-0.25
278115859485,2.5,0.625,0.1875
278115881941,1.3125,0.625,0.25
278115905139,0.625,0.375,0.125
278115919505,0.4375,0.375,-0.1875
278115941968,0.0625,0.5625,-0.25
278115965141,-0.1875,0.5,-0.3125
278115979427,0.0625,0.6875,-0.125
278116001880,0.3125,0.75,-0.1875
278116025117,0.3125,0.6875,-0.3125
278116039505,-0.0625,0.625,-0.1875
278116061987,-0.375,0.4375,-0.375
278116085506,-0.875,-0.0625,-0.5625
278116099532,-0.875,-0.0625,-0.3125
278116122394,-0.6875,0.125,-0.1875
278116145077,-0.25,0.0625,-0.1875
278116159529,0.125,-0.125,0.0625
278116181975,0.375,-0.0625,0.25
278116205128,0.0625,0.1875,-0.0625
278116226174,-0.375,0.1875,-0.125
278116241932,-0.5625,0.0625,-0.375
278116271281,-0.8125,-0.25,-0.5
278116286185,-0.5625,-0.1875,-0.375
278116309899,-0.0625,-0.1875,-0.25
278116325100,0.3125,-0.25,-0.125
278116346185,0.125,-0.125,0
278116361979,-0.25,-0.125,0.1875
278116385132,-0.125,-0.0625,0.25
278116406301,0,-0.125,0.25
278116422007,-0.0625,0,0.125
278116445245,0,0.125,0.0625
278116466137,0,0,0.0625
278116482074,0.5,-0.0625,0
278116504591,0.8125,-0.0625,0.25
278116526205,0.9375,-0.1875,0.125
278116541944,0.9375,-0.125,0.25
278116564389,0.4375,-0.1875,0.125
278116586263,0.625,-0.125,0
278116601980,-0.1875,-0.375,-0.25
278116624510,-0.875,-0.25,0.0625
278116646287,0,0.1875,0.25
278116661915,0.9375,-0.0625,0
278116684427,0.625,-0.125,0.3125
278116707679,0.3125,-0.125,0.3125
278116721969,0.125,-0.375,0
