timestamp,emg1,emg2,emg3,emg4,emg5,emg6,emg7,emg8
278410759474,0,-2,-1,0,-2,-2,-1,-1
278410759474,-1,-2,-1,-1,-1,-1,-2,0
278410761522,-2,-2,-2,-1,-1,-3,-1,0
278410761522,-3,1,-2,0,0,0,0,0
278410762852,-1,0,-1,1,0,0,1,1
278410762852,0,-1,0,0,-3,-2,-1,-2
278410780299,0,0,-2,-2,-3,-2,-2,-1
278410780299,0,-2,-2,-1,0,-1,-1,0
278410782012,-1,0,-1,0,0,-1,-1,-1
278410782012,-1,-2,0,0,-3,-2,0,-1
278410785346,0,0,-1,-1,-1,-1,-1,-1
278410785346,-2,-1,-2,-1,0,-1,0,1
278410786168,-1,-1,1,-2,-1,0,0,-1
278410786168,1,0,1,-3,-2,-3,-1,0
278410800293,-2,-2,-1,-2,-1,-1,-2,0
278410800293,1,0,1,-1,0,0,-2,-1
278410809621,0,-1,0,2,1,2,1,1
278410809621,-1,-2,0,-2,-2,0,-3,-2
278410815275,-2,1,-2,0,0,-2,0,-2
278410815275,-1,-1,-2,-1,0,0,-2,-1
278410831001,1,1,-1,-4,-1,-3,-1,0
278410831001,-1,-1,-3,0,0,-1,-2,0
278410838992,-1,-1,-1,0,-2,-1,-2,-1
278410838992,-1,-1,-1,-1,-2,0,0,0
278410854094,1,0,-1,-1,-2,0,-2,0
278410854094,-1,-2,-1,0,-1,-2,0,0
278410884017,-1,-1,-2,0,0,-1,0,-1
278410884017,0,0,-1,0,-1,0,-1,-2
278410891955,0,-3,-1,0,2,0,-1,-2
278410891955,-2,0,-2,-1,0,-1,-1,-1
278410892634,-1,-1,1,0,0,0,2,1
278410892634,-1,-2,-1,-1,0,1,0,-1
278410897653,0,-1,0,-2,-4,-2,-1,-2
278410897653,0,-1,-2,-2,-2,-3,-1,-1
278410905077,0,-1,-1,-1,1,-1,-1,-2
278410905077,-1,0,0,0,-2,0,0,1
278410928986,-2,-1,0,1,0,0,0,-1
278410928986,0,-3,-2,-3,-2,-1,-1,-1
278410929711,0,0,-2,-1,-1,-2,-2,0
278410929711,-1,0,0,-1,1,-3,-2,0
278410935061,-2,-1,1,-1,-2,0,-1,0
278410935061,-2,0,-2,0,-1,-2,0,0
278410942592,-2,-1,-1,-1,0,0,0,-1
278410942592,-1,-1,-2,0,-1,0,0,0
278410959040,-1,-1,-1,-2,-1,-1,-1,-1
278410959040,-1,-1,0,-1,0,-1,0,-1
278410974107,-1,-1,-1,-1,-1,-1,-3,-1
278410974107,0,1,-2,2,-1,-1,-1,-1
278410975554,-1,-1,-1,0,0,-1,-1,2
278410975554,-1,-2,-1,0,-1,1,-1,-1
278410980198,0,-1,-1,1,2,-1,-1,0
278410980198,-2,-2,-1,-3,-3,-3,-1,-2
278410995178,-1,0,-1,-1,-2,-3,-2,-1
278410995178,-1,-1,-1,0,0,-1,0,-3
278411002563,2,-1,0,-1,-2,0,0,-1
278411002563,-1,-2,1,1,1,0,-2,-1
278411011567,1,1,0,-1,-2,-1,-2,1
278411011567,-1,-1,-1,-2,-1,-1,-1,0
278411033839,-1,0,-2,-2,0,1,0,-2
278411033839,-1,-2,0,-1,0,0,-1,1
278411035480,-1,0,-1,-2,-1,-1,0,-2
278411035480,-1,-2,-1,-1,-2,-1,-2,1
278411056408,0,-2,-1,-1,-1,-3,0,0
278411056408,0,-1,0,-1,-1,0,0,-2
278411058059,-1,-1,1,-1,0,1,-1,-2
278411058059,0,0,0,0,-1,-2,-3,-1
278411062517,-2,0,0,0,-1,-1,-2,0
278411062517,-1,-2,0,-1,-1,-3,-1,-1
278411071533,-1,-2,-1,-1,0,0,0,-1
278411071533,0,0,1,1,1,0,-2,-1
278411085506,-1,-1,-1,-1,-2,-1,0,-3
278411085506,1,1,-1,-1,-2,-1,-3,-1
278411094076,-2,0,-1,-1,-3,-3,0,-2
278411094076,-1,-1,-3,0,1,-1,-2,-2
278411100179,0,0,-2,1,1,0,0,1
278411100179,-2,-2,-2,0,1,2,0,0
278411123293,-1,-1,0,0,0,2,0,-1
278411123293,-1,-1,-1,-2,-1,0,-1,0
278411123979,0,0,-1,-1,-2,-1,-1,-1
278411123979,-1,0,-1,-1,-1,0,0,-1
278411131576,0,-1,-1,-1,-2,-2,-2,0
278411131576,-2,0,2,0,-1,0,-1,-1
278411145118,-1,-2,0,-2,0,1,-2,0
278411145118,0,0,-2,-1,-1,-2,-1,-2
278411162253,0,-1,-1,0,-2,-2,-2,-2
278411162253,0,-1,-1,-1,-1,0,-1,-1
278411163184,-2,-1,-1,0,0,0,1,0
278411163184,-1,-3,-1,-1,-2,-2,0,-1
278411183417,1,-2,-2,0,1,-1,-1,0
278411183417,-1,0,-2,-2,2,-2,-2,1
278411184018,-1,-1,-2,-1,-2,-3,0,-1
278411184018,-1,-2,1,-1,-1,-2,-1,-1
278411197704,-1,0,-2,-1,-1,-1,0,-1
278411197704,-1,-1,0,1,-1,1,0,-3
278411205287,-1,-1,-1,0,0,3,0,2
278411205287,-1,-1,-1,-2,-2,-1,-1,0
278411214026,0,-3,-2,-3,1,-2,-1,-2
278411214026,0,-1,0,0,-2,-2,-1,0
278411220202,0,-1,-2,-3,-4,-2,-1,-2
278411220202,-1,-2,0,0,2,-1,-1,-3
278411236519,-1,0,-1,0,1,2,1,-1
278411236519,0,-2,-2,-1,-1,-2,0,-1
278411251858,-1,-1,-1,-1,-3,-3,-3,-1
278411251858,-1,0,-1,-1,-2,-1,-1,-1
278411259033,-3,0,-1,-1,0,1,-1,-2
278411259033,-1,-2,-1,-2,0,0,0,0
278411265191,0,0,1,-2,-1,-1,0,-2
278411265191,1,-3,0,-1,-2,-1,-2,-1
278411280761,0,-1,-1,-2,-1,-3,-2,0
278411280761,-1,0,-1,-1,-1,0,0,1
278411281754,0,-1,0,-2,0,-1,-1,1
278411281754,0,1,-2,1,0,1,-2,1
278411295173,-2,0,-1,0,-1,-1,-1,1
278411295173,-1,-1,-1,-1,-3,-1,0,-1
278411310748,-1,0,-2,-1,1,-1,-1,-1
278411310748,0,1,-1,-1,-2,-3,0,0
278411325552,-1,1,0,0,1,0,1,0
278411325552,0,-2,0,-2,-1,-3,1,-1
278411333944,-1,0,0,-1,0,-3,-1,-1
278411333944,-1,-2,0,-1,0,-1,0,-2
278411335505,-2,-3,-2,0,-3,1,-1,1
278411335505,-3,0,-1,0,-1,0,-1,-1
278411340119,0,-1,-1,0,-1,-1,2,-1
278411340119,-1,-1,-1,-1,-2,-2,-3,-4
278411355069,0,-3,-2,0,-3,-2,-3,-2
278411355069,-1,0,-1,-1,-1,1,-2,0
278411362716,-1,-2,-2,1,1,1,-2,-1
278411362716,-1,-1,-2,-3,-1,-1,-1,-1
278411377670,0,0,0,-1,-3,-1,0,-3
278411377670,-1,1,-1,0,-3,-2,-1,-2
278411385165,-1,-1,-1,-2,-1,-2,-2,0
278411385165,-2,-1,0,-1,2,0,-1,0
278411394081,-1,-2,-3,-2,1,-2,-3,0
278411394081,1,-1,-1,-3,2,2,0,0
278411416414,-1,-2,2,-1,-3,1,-2,0
278411416414,-1,0,-2,-2,-2,-3,-1,1
278411418035,-3,-2,0,-2,-1,0,-3,-2
278411418035,-2,-1,-2,0,-1,-1,-1,-1
278411422609,-1,0,-1,-1,0,2,-1,-2
278411422609,0,-2,-2,0,2,3,1,-1
278411439011,1,2,-3,-2,-1,-3,-1,-1
278411439011,1,-1,-3,-2,-1,-2,-1,1
278411445136,0,0,-2,0,-1,0,0,-1
278411445136,0,0,-1,-1,-3,-1,-1,-1
278411461555,-1,-1,1,1,0,-1,-2,-1
278411461555,-2,-3,2,3,-2,-2,0,-2
278411468351,1,-2,-2,-1,-2,-1,-1,1
278411468351,-1,0,-1,-1,-1,-2,0,1
278411475119,-1,-2,-1,-1,0,0,-1,-1
278411475119,1,0,-2,-1,-1,-4,-2,0
278411482594,-2,0,0,0,-1,-1,0,-1
278411482594,0,-1,0,0,0,0,-1,-1
278411497650,-3,0,-1,0,-1,-1,1,0
278411497650,0,-2,1,-2,0,-1,-1,-1
278411505025,0,-1,-1,-2,1,-2,-2,-2
278411505025,-2,0,-2,-1,0,-2,0,0
278411514083,-2,0,0,-2,-2,0,0,-1
278411514083,-1,-2,-2,-1,-1,1,1,0
278411529207,-1,-1,1,0,0,0,0,-1
278411529207,0,-1,0,-3,-3,-1,-2,-1
278411536532,1,0,-1,2,0,-2,-2,0
278411536532,-1,2,0,-1,-1,-2,-1,-2
278411542487,-1,-2,-1,-1,2,1,-1,0
278411542487,-2,-1,0,0,1,0,0,-1
278411557601,0,-1,-1,-1,-2,-1,0,2
278411557601,-2,-1,-1,0,1,1,-1,-2
278411565204,0,0,-1,-1,-3,-1,-2,-2
278411565204,-1,-2,-1,0,-2,-2,-2,-1
278411574081,-1,-2,0,-2,-1,0,-1,-1
278411574081,-1,-1,-2,-2,-1,1,-1,-1
278411588477,0,-1,-1,-1,-1,-1,-1,-1
278411588477,-1,-1,-1,-2,0,0,-1,1
278411603796,0,-1,0,0,0,-3,-1,0
278411603796,0,0,-1,1,0,-1,0,-1
278411610771,-2,-1,0,1,0,-1,1,-2
278411610771,0,-1,-2,0,0,-1,-1,-1
278411617607,0,-1,-1,0,-2,-2,0,-1
278411617607,-1,1,0,-1,-4,-3,-1,-2
278411625205,-2,0,-2,-2,-1,-3,-1,1
278411625205,-1,-1,-1,0,0,-2,-1,-1
278411640247,-2,-2,-3,-1,1,2,0,-1
278411640247,0,-1,-1,-2,-1,-1,-3,-1
278411648316,0,-1,-1,-2,-3,-1,-1,0
278411648316,0,-2,-1,0,-1,1,1,-1
278411655116,-1,-1,1,0,1,-1,-2,-1
278411655116,-1,-2,-2,0,0,0,1,1
278411662646,0,-1,-1,-2,-4,-3,-1,-1
278411662646,-1,-2,-1,-2,0,-3,1,-1
278411685702,-1,0,-2,-1,0,0,1,-1
278411685702,0,-1,0,-1,2,0,0,0
278411686656,-1,0,-1,0,0,-2,-1,-2
278411686656,0,1,-2,1,-3,-1,-1,-2
278411694092,-1,-1,-1,-2,-2,-2,0,-1
278411694092,-2,0,0,0,1,-3,-1,0
278411708967,-1,-1,-1,-2,0,-1,0,0
278411708967,-1,-2,0,-1,0,0,-1,-1
278411715093,0,0,0,-2,-3,-2,-1,0
278411715093,-1,-2,-1,-3,0,1,0,-2
278411722606,-1,-3,-1,-1,1,-1,-1,-2
278411722606,-1,0,-2,-1,0,0,0,-1
278411737677,0,-1,0,-1,-1,-1,-1,-1
278411737677,0,-3,-2,1,0,2,0,1
278411745071,-1,-1,-1,0,-1,-1,-1,-1
278411745071,-2,0,-1,-3,-4,-1,0,-2
278411754027,-1,-1,-1,-1,-1,-2,-1,-1
278411754027,-2,1,-2,0,-2,-2,0,-2
278411768401,0,-2,1,2,0,-1,-3,1
278411768401,-2,-2,0,1,0,0,-3,-2
278411775269,-2,0,-2,-2,2,-1,-1,0
278411775269,-3,-2,0,-2,-2,-1,1,1
278411790835,-1,-1,0,-2,-1,0,0,-1
278411790835,-2,-1,0,-2,-4,-3,-4,0
278411805764,-1,-2,-1,0,-1,0,0,1
278411805764,-1,1,0,-2,1,0,-3,-2
278411806573,-1,0,-1,3,0,0,-1,-2
278411806573,-1,-2,-3,2,1,2,0,-1
278411814067,0,1,-1,-1,-1,-1,0,-3
278411814067,0,-2,-1,0,-3,-1,-1,1
278411828730,0,0,-2,-2,-2,0,1,1
278411828730,0,2,1,-2,0,-3,-1,1
278411844644,0,0,0,1,-2,0,-1,-1
278411844644,0,-1,-2,-1,-1,-1,0,-1
278411845482,-1,-1,-1,-1,-1,-2,-1,-1
278411845482,-2,-1,-2,1,3,0,0,-1
278411865849,-1,-2,-1,-2,-1,-2,-2,-1
278411865849,-2,0,-2,0,-1,-2,-1,-1
278411866488,-1,-1,-3,-1,-2,-1,-1,-2
278411866488,1,-2,1,-1,-1,-2,0,-1
278411888893,0,0,-1,-1,2,-1,-1,-2
278411888893,0,-2,0,-1,0,-2,-2,1
278411889707,-1,-1,-1,-1,1,0,0,0
278411889707,-1,-3,-2,1,1,0,-1,-1
278411903307,-1,-1,-2,0,0,-1,0,0
278411903307,1,-1,-2,0,-2,1,0,-1
278411904030,-1,-1,0,-1,-2,-1,-1,0
278411904030,0,-1,0,-3,-1,-2,-1,0
278411917696,-1,-2,0,-2,-1,-2,-1,-1
278411917696,-2,-1,0,-3,0,-1,-2,-1
278411925059,-3,-1,1,-1,-2,-3,-1,0
278411925059,-1,-1,-2,0,-1,-2,0,-1
278411941556,0,0,-1,0,0,-1,-2,-2
278411941556,-2,-1,-1,-2,-1,-1,-2,-1
278411948796,0,0,-1,-1,0,1,1,0
278411948796,-1,-2,-2,-2,1,2,-3,-1
278411971595,-3,-2,-1,-3,-1,-1,-2,1
278411971595,0,0,-1,-2,-2,-2,-2,-1
278411972243,-1,-1,-2,-1,-1,-2,-1,-2
278411972243,-2,-2,-1,1,0,1,0,-1
278411977599,0,0,-1,1,0,0,0,0
278411977599,0,0,-2,-1,-3,-1,-4,-2
278411993380,0,0,-3,-2,-1,0,0,-2
278411993380,0,-2,0,1,-3,-1,0,0
278412000068,0,-2,-3,-2,-1,-1,-3,0
278412000068,-1,-1,-1,0,0,-1,0,0
278412008307,-1,-1,2,-1,-3,-3,-2,-1
278412008307,-1,-1,-1,-1,-3,0,-1,-1
278412023240,0,-2,-1,-2,0,-1,1,0
278412023240,-1,-1,-2,0,0,0,0,-1
278412024116,-1,-2,-2,-1,0,0,-2,0
278412024116,0,-3,-1,0,1,-1,-2,0
278412039063,-2,-1,0,-1,-1,-2,0,-1
278412039063,0,-2,0,0,2,-1,0,-1
278412045036,-1,-1,-1,1,-2,0,1,-1
278412045036,0,-1,0,-2,-1,-3,-2,-2
278412070405,-2,-1,-1,-1,-2,0,1,-1
278412070405,-1,-1,0,-1,1,0,1,2
278412071199,-2,-2,-1,-1,-2,-1,-3,1
278412071199,-1,0,-2,-1,-1,-1,-1,-2
278412091894,-1,-1,-2,0,-3,-1,1,-1
278412091894,-1,-1,0,-1,1,0,-2,-1
278412092836,-2,-1,-1,0,-2,-1,-1,0
278412092836,-2,0,1,-2,-1,0,0,0
278412097580,-1,0,0,1,-2,-2,-2,-1
278412097580,0,-1,-2,-1,-3,-2,1,-1
278412105092,0,0,-1,-2,3,0,0,-2
278412105092,-2,-2,-1,-2,-1,-1,2,-1
278412121544,-2,0,-3,1,1,0,-1,-2
278412121544,-1,-1,0,-2,-2,-1,0,-1
278412127588,0,-2,-1,-1,0,-4,-2,-2
278412127588,-1,0,1,-1,-1,-1,-1,-1
278412143349,0,-3,-3,0,-1,-1,-1,0
278412143349,-2,0,-1,-2,-4,-4,-2,-1
278412143981,0,-2,-1,-1,1,-2,-2,-1
278412143981,0,0,-1,0,1,2,-1,0
278412157734,-1,-2,0,-3,0,1,0,0
278412157734,0,-1,-1,0,0,1,-1,-2
278412165330,0,-1,-2,1,0,-1,1,-1
278412165330,-2,0,-1,0,-1,0,-2,0
278412180134,0,-1,1,-2,0,-1,-2,0
278412180134,-2,-1,-1,0,-1,3,-1,-2
278412187603,-2,0,1,0,-1,-2,-4,0
278412187603,0,-1,-2,-1,-1,-3,0,-2
278412203161,-1,-1,-1,0,-1,-1,1,0
278412203161,1,0,-2,-1,-2,1,-1,1
278412204009,-1,-1,0,0,-4,0,-1,-2
278412204009,-3,1,0,-1,-3,-3,-2,-1
278412219037,-2,-1,-1,-3,-2,-2,0,-1
278412219037,-1,0,0,-1,1,-4,-1,-2
278412225086,-1,-3,-1,2,0,2,1,-1
278412225086,1,-1,-1,-2,-2,-2,-2,0
278412241576,-1,-1,-3,-1,0,-1,-1,-1
278412241576,-1,-3,-2,0,-1,-2,-1,0
278412247570,-1,-1,-3,-2,0,0,-1,-1
278412247570,0,-1,-1,-2,0,1,-1,-1
278412263777,0,0,-1,0,-1,-2,0,-2
278412263777,1,-1,0,0,1,-1,-2,0
278412264581,0,-1,0,-1,-4,-4,-1,-1
278412264581,-1,-1,0,-1,-2,-1,-1,-2
278412277484,-1,-1,-2,1,-1,-2,-1,-2
278412277484,0,0,1,-3,0,-1,0,1
278412284989,0,-2,-1,-1,-1,-1,0,1
278412284989,0,0,0,-2,-1,-2,-1,-1
278412299996,0,-1,0,-1,0,0,-3,1
278412299996,-1,0,-1,-2,-5,-5,-4,-1
278412307529,-1,1,0,-2,1,1,0,-1
278412307529,-1,0,-2,-1,-3,2,1,0
278412323206,0,-1,0,0,1,1,-1,-1
278412323206,-1,-1,-4,1,-1,0,-2,-2
278412323997,-1,-3,-1,-2,-1,-2,-3,-1
278412323997,-1,-1,-2,0,-2,-1,-2,-2
278412345750,-2,1,0,0,0,0,0,-1
278412345750,0,-2,-1,1,0,-1,-1,-1
278412346493,-1,-1,-2,-1,0,-3,0,-1
278412346493,0,0,-1,1,-2,-2,-1,0
278412369691,-1,0,-2,-3,0,-1,-2,2
278412369691,-1,-2,1,-2,0,-1,-1,-1
278412370495,0,1,-2,-1,1,0,-1,-3
278412370495,-1,-2,0,-2,0,-1,-2,0
278412383222,0,0,-1,-2,-4,2,0,-3
278412383222,-1,-2,-1,1,-1,2,0,0
278412383992,-1,0,-1,1,-2,0,-1,0
278412383992,0,-3,-1,-1,0,-1,-1,0
278412397554,0,0,0,0,-3,-3,-2,0
278412397554,-1,-1,-3,-1,0,0,0,-1
278412405047,0,-1,0,-1,0,-1,-1,-1
278412405047,0,-1,-1,-1,-2,0,0,-1
278412421556,-2,-1,-1,0,-3,-4,-2,-2
278412421556,-1,1,-2,-1,-1,-2,0,-2
278412435503,-1,0,0,0,-1,-1,-3,-1
278412435503,0,-1,-1,0,2,0,-1,-1
278412444010,0,-2,-1,0,1,-1,-1,-2
278412444010,-2,-1,-1,0,1,-2,-1,-2
278412450714,-1,0,-1,0,1,-2,0,-2
278412450714,-2,-1,-2,0,0,-2,-1,-2
278412457535,0,-1,-2,-1,0,0,-1,0
278412457535,0,-1,-1,0,-2,-3,-1,0
278412473397,-2,-2,-3,-1,-2,-1,0,-1
278412473397,-2,-2,0,0,0,0,-1,-3
278412480218,-1,-1,-1,0,-3,-2,1,0
278412480218,-1,0,0,-2,0,-1,-1,-1
278412487700,0,-2,0,-1,0,-1,0,0
278412487700,0,-2,-1,-2,-2,-1,-1,-2
278412502533,-1,-3,-2,-1,-1,1,-2,-1
278412502533,-1,0,-4,1,0,-1,1,-2
278412511863,0,0,-1,1,-1,1,1,0
278412511863,-4,-1,-2,1,-1,-1,-2,0
278412519068,0,-1,0,-2,-1,0,0,0
278412519068,1,0,-1,-1,-1,-1,0,0
278412525255,0,-1,-1,-2,0,0,-1,-1
278412525255,-2,-1,1,1,-1,-2,1,0
278412548293,-2,-1,-1,-2,-1,-3,-1,-2
278412548293,-2,0,-1,-2,-2,0,-2,-1
278412549009,-1,-1,0,0,-1,-1,0,-1
278412549009,-1,0,-1,-2,0,1,0,-1
278412562680,0,-1,-2,0,0,-1,-2,2
278412562680,-2,-1,0,-2,-5,-2,-3,1
278412570741,0,-1,0,-2,-2,-3,-2,-1
278412570741,-1,-2,-2,-2,0,0,0,0
278412577703,-1,0,-1,0,0,0,0,-2
278412577703,-1,-3,-1,-1,1,0,0,-1
278412585180,-3,0,-3,0,-2,-1,-3,-1
278412585180,0,-2,0,2,-1,-2,0,-2
278412601563,1,0,-1,-1,-1,-2,0,0
278412601563,-2,-1,0,1,1,0,-1,1
278412607709,-1,-1,0,-2,-5,-1,-2,-2
278412607709,-1,0,-1,-2,1,-1,-2,-2
278412622599,0,-1,0,0,0,0,0,-1
278412622599,0,0,0,-2,-2,-1,0,1
278412638689,-2,-2,0,0,2,2,0,0
278412638689,-1,1,-3,-3,0,0,-1,0
278412647175,1,-1,0,-1,-2,-3,-1,-1
278412647175,0,0,1,-1,-1,-3,-1,0
278412648007,-2,-1,-1,-2,-3,-2,-1,0
278412648007,0,-2,-2,0,-1,-1,0,-2
278412660031,-2,-2,-1,-1,-2,1,0,-1
278412660031,0,-2,-2,0,-3,-1,-2,-1
278412675797,0,-1,-1,-1,-1,-2,-1,-1
278412675797,-1,1,-1,0,-1,-1,-2,-1
278412682583,-2,-1,-2,0,1,-1,-1,0
278412682583,0,0,0,0,-1,0,2,-2
278412698256,0,1,0,-2,-1,-3,-2,-1
278412698256,0,-1,-1,-2,0,-2,-1,-1
278412714572,-1,-2,0,0,-1,0,-4,-2
278412714572,0,-2,-3,-1,-1,0,1,-1
278412721469,-1,-2,-1,1,-3,3,0,-2
278412721469,-1,0,-1,-2,-2,0,-1,-1
278412723039,0,1,-1,-2,1,0,-1,0
278412723039,0,0,-2,0,0,-3,-3,-2
278412727583,-3,-1,-2,-1,-1,-2,-1,-2
278412727583,0,-3,-1,0,-2,-1,0,0
278412742539,-4,-1,0,2,-1,1,1,-1
278412742539,-1,-1,-1,-3,-2,-2,-2,-2
278412750727,-2,-1,-1,0,-1,-2,-1,-1
278412750727,-1,1,0,-2,-2,-1,-3,-2
278412773890,-1,-2,-1,-1,-2,-2,0,0
278412773890,-2,0,-2,0,0,1,0,0
278412774723,-1,-1,-1,-1,-1,-2,-3,-3
278412774723,0,-2,-3,-2,0,0,-1,1
278412780080,-2,0,-2,0,-1,-1,1,-1
278412780080,1,-1,0,-1,-1,1,-1,-3
278412787528,-1,-2,-1,-1,-3,-3,-2,-1
278412787528,-1,-1,0,-1,0,1,-2,-2
278412802592,1,-1,-1,-2,-1,-1,0,-2
278412802592,1,-1,1,1,0,0,-2,0
278412810895,-1,-1,-2,0,2,2,1,-1
278412810895,-1,-2,-1,-1,-1,-2,-2,0
278412825881,-1,-1,-1,-1,0,0,-2,0
278412825881,-3,-2,-2,-2,1,0,-1,0
278412826525,0,-1,-1,0,-4,-1,-3,1
278412826525,1,0,-1,1,-4,-4,-1,0
278412840013,-1,0,-1,-1,0,2,1,0
278412840013,-2,0,-1,-2,-2,-1,0,-2
278412847658,-3,0,-3,-2,-2,-1,0,-1
278412847658,-2,0,-2,0,-1,0,-1,1
278412879111,-2,1,-2,0,0,0,-1,-2
278412879111,-2,-2,0,-1,0,0,-1,0
278412879664,0,-1,-1,-1,-2,-1,-3,-1
278412879664,-2,-3,-1,0,-2,-2,-3,-3
278412885839,2,-2,-1,-1,1,-2,0,-2
278412885839,-1,-1,-2,0,-1,-1,-1,1
278412886526,-1,-1,0,-3,0,-1,2,0
278412886526,-1,0,-1,-2,2,1,1,-2
278412901582,-2,-1,0,-2,-2,0,-2,0
278412901582,-1,-1,-2,-2,-2,-2,-1,0
278412923902,0,0,1,-1,-2,-1,-1,-2
278412923902,-1,0,-1,-1,-3,1,1,-2
278412925507,-2,-3,-2,-1,-3,-2,-1,0
278412925507,-1,0,1,0,0,-3,-2,-1
278412930731,0,-1,0,0,1,0,-1,0
278412930731,-2,-2,1,1,1,1,1,-1
278412945704,0,0,1,0,-1,-2,0,1
278412945704,0,-1,-2,-1,-3,-4,-1,-1
278412946430,-1,-1,0,-1,-1,2,-1,-1
278412946430,0,-1,0,-2,-1,0,-1,-2
278412960038,-2,-1,0,0,-3,-1,-1,2
278412960038,-2,-3,0,0,-1,2,0,-2
278412967574,-1,-1,0,0,1,-1,-2,-2
278412967574,-1,-1,1,-1,-2,-3,-1,-1
278412982710,2,0,-1,-1,-2,1,-1,-1
278412982710,-1,-1,-1,-2,-1,-1,0,-1
278412998246,0,-2,-2,-1,-1,-1,-1,-1
278412998246,-1,-2,-1,-2,-2,0,-2,-2
278413005833,-3,-1,-1,-2,-1,-2,-2,-1
278413005833,-1,-1,-1,0,-1,1,0,1
278413006435,1,-2,0,0,-2,-4,-1,-1
278413006435,0,-2,-1,0,-1,-3,-1,0
278413029701,0,1,-2,-1,-1,-2,-2,-1
278413029701,0,0,-1,0,-1,0,-1,-1
278413030543,-2,-1,-1,-2,0,2,-1,0
278413030543,-2,0,-1,-1,-1,-1,0,0
278413051376,-1,-3,-1,-1,0,0,-3,-1
278413051376,-1,-1,-1,-1,0,-3,-2,-2
278413052296,-1,1,-2,-1,-2,-1,-2,0
278413052296,-1,-1,-1,-2,-3,0,0,0
278413065451,-1,-1,-1,-1,-1,3,0,-1
278413065451,-1,-1,-1,0,0,2,-1,-2
278413073324,-1,-1,1,-2,-2,0,0,-1
278413073324,-2,0,-1,0,-2,0,-2,-1
278413080187,1,-2,-3,0,0,-3,1,-1
278413080187,-1,0,-1,-3,0,-1,-2,0
278413087646,0,0,-1,-1,0,-1,-2,-2
278413087646,-1,-1,-1,0,0,0,-1,-1
278413102600,-2,0,0,0,-4,-3,0,0
278413102600,-1,-2,0,1,-1,-2,-1,0
278413110880,-2,-2,-1,0,-1,1,-1,2
278413110880,-2,0,-2,0,-2,1,-2,0
278413126219,0,-2,-1,-1,-2,0,0,-1
278413126219,1,0,-1,-1,-2,0,-1,0
278413127053,-1,0,-1,-1,-2,0,-1,-1
278413127053,0,0,-1,-2,4,-2,0,-1
278413148182,-2,0,0,-2,2,-2,-4,-1
278413148182,-1,-1,-2,-1,-1,-2,-1,-2
278413149141,0,-2,-2,1,0,-1,0,-1
278413149141,1,-1,0,0,-2,-1,-1,-1
278413162580,1,-1,-1,-1,0,0,0,-1
278413162580,0,-1,1,-1,0,0,-1,1
278413178275,-2,0,-2,-1,0,-2,-1,0
278413178275,-1,-1,0,-1,-2,-2,0,-2
278413202032,-2,0,-1,-1,-2,-3,-2,-1
278413202032,-1,-2,-2,0,-4,-1,-2,-1
278413202861,-2,-2,0,-2,-2,-1,0,0
278413202861,-1,-2,-2,-2,-2,0,-2,0
278413204448,0,-1,-3,1,2,0,-1,-1
278413204448,-1,-2,-1,-3,-1,-1,0,-1
278413207473,-1,-1,1,0,-2,-3,-1,-2
278413207473,-1,-1,-2,-1,0,0,0,-2
278413231383,-1,-3,-3,1,-1,-1,-1,-1
278413231383,0,-1,0,0,1,-1,0,-1
278413232160,1,-1,-1,-1,0,0,-1,-1
278413232160,2,0,0,0,-1,-1,-1,0
278413245456,0,1,-1,-1,-2,0,1,-1
278413245456,0,0,0,-2,1,-1,-2,-2
278413253195,0,-1,-1,-2,0,0,-2,-1
278413253195,-3,-2,0,0,-1,2,-1,-1
278413267970,-2,0,1,-3,-2,-1,-1,1
278413267970,-1,0,-1,-1,-2,0,-1,0
278413275721,0,0,-1,0,2,-1,-1,-2
278413275721,0,-1,-2,-2,0,-1,-2,0
278413282491,1,0,0,0,-2,0,-1,-1
278413282491,-3,-1,-1,-1,-2,-1,0,-2
278413290538,-2,0,-3,0,-3,-1,-1,0
278413290538,-1,-1,-1,0,-1,-3,0,-2
278413307174,-2,-3,-2,-1,1,-1,-1,-1
278413307174,1,0,-1,0,1,-1,-1,-1
278413307994,-2,0,-1,0,0,0,-1,-1
278413307994,-2,-1,0,-1,-1,-3,-1,0
278413320178,1,-1,1,-2,-4,0,-2,-1
278413320178,-2,-1,0,-2,-1,-1,0,-1
278413327706,-1,-2,-2,-2,-2,-4,-1,-1
278413327706,-1,0,-2,-3,0,-2,0,0
278413351516,-2,0,-1,-1,1,0,1,0
278413351516,0,-1,-1,0,-1,2,-2,-1
278413352155,0,-2,-1,-1,-3,1,-2,0
278413352155,-2,0,-1,-1,-3,-1,-1,-1
278413365238,1,-1,1,0,1,-1,-2,-1
278413365238,-3,0,-1,1,0,-1,-1,1
278413381555,-3,0,-2,0,-2,0,1,-1
278413381555,-1,-2,-1,-1,0,-2,-2,-1
278413383042,-1,-1,-2,-2,0,-1,0,-1
278413383042,0,0,-1,0,0,-1,-1,0
278413387709,-1,0,-2,-2,1,0,0,0
278413387709,1,-2,-2,-2,-1,-1,0,-1
278413404051,-1,0,0,-1,-2,1,0,-2
278413404051,-1,-1,-2,-2,-3,-1,0,-1
278413410940,0,0,1,-1,-2,-1,-2,-1
278413410940,0,-1,-1,-1,2,-2,-1,0
278413425048,-1,2,-2,1,-1,-3,0,0
278413425048,0,-2,2,-1,-1,-1,0,0
278413433217,-2,0,-1,-1,1,1,-1,1
278413433217,-1,-1,-1,1,-1,1,-1,-2
278413440054,-2,-1,-2,-1,0,0,-2,0
278413440054,-1,-1,-1,-4,1,-2,-2,-1
278413447554,-1,-1,0,-2,-1,-2,0,0
278413447554,-2,-1,-1,-4,-3,-2,-1,0
278413471307,-2,-2,-2,-1,-2,-2,0,-2
278413471307,0,1,-1,-1,-3,-1,-1,-3
278413478297,0,-2,0,0,-1,-1,-1,0
278413478297,-1,0,-1,0,1,1,1,1
278413485035,-1,-2,-2,-1,0,-3,-2,-1
278413485035,-1,-1,-1,1,0,-2,-2,-1
278413493701,-1,-2,-1,-1,0,0,-1,-2
278413493701,-1,0,-3,0,-2,-2,-1,-1
278413501544,-1,-1,0,-1,-1,0,1,0
278413501544,-1,-2,-1,1,-1,-1,-1,-1
278413507565,1,0,-1,-1,0,-1,-2,-1
278413507565,-1,-1,-1,0,-2,-1,-2,-2
278413533534,0,-2,-1,0,2,2,-4,-2
278413533534,-3,-2,-1,-1,0,-1,1,-1
278413534430,-2,-1,-1,-1,-2,-2,0,0
278413534430,0,0,2,-2,-1,-1,-1,-1
278413554017,1,0,0,-1,-3,-1,1,-1
278413554017,0,0,-1,-2,0,2,0,-1
278413554750,-3,0,-2,1,0,0,-1,0
278413554750,-1,0,-3,-1,-3,-5,-2,2
278413568346,-2,-3,0,0,-2,1,0,0
278413568346,-2,-2,-1,0,-2,3,-1,-1
278413569045,0,-1,1,0,1,-1,2,-3
278413569045,-1,0,1,-1,0,0,0,0
278413582590,0,-2,0,-2,-2,-2,-2,-1
278413582590,-1,-1,-2,-1,-2,-2,1,0
278413590968,-2,1,-1,-1,1,-1,-2,-1
278413590968,1,-2,-2,-1,2,-1,-1,-1
278413605606,-1,-2,-1,-1,1,-1,1,-2
278413605606,-1,-1,-1,0,2,-1,-1,-2
278413621901,-1,-1,-2,-1,-2,-2,-1,-1
278413621901,-1,-2,0,-2,-2,1,-1,0
278413636496,-1,0,1,1,-2,-1,0,0
278413636496,0,0,-1,-1,-3,-2,-1,0
278413637197,0,-2,-1,-2,-2,-2,-1,0
278413637197,-1,-1,-2,1,3,0,-1,-1
278413642588,0,2,-3,0,1,-4,-1,1
278413642588,1,1,-1,0,-1,-4,-3,-1
278413651245,-1,-1,0,-1,-1,-1,0,-1
278413651245,-1,-2,-1,-1,-1,0,0,-1
278413665265,-1,-1,0,-2,1,1,0,-1
278413665265,-1,-1,-1,-2,0,0,-2,2
278413673379,0,-1,-1,-2,-2,1,-2,-1
278413673379,0,-1,0,-2,-2,-2,-1,-1
278413688212,0,-1,-1,-1,-1,-2,-1,-3
278413688212,-1,-2,0,-2,-2,0,-2,-1
278413689039,1,-3,-1,-1,2,-1,-1,0
278413689039,-2,-1,-2,1,-1,2,0,-2
278413704041,0,-1,1,-2,-3,-3,-4,0
278413704041,-2,0,-2,-3,-2,-3,-1,0
278413710745,-1,-2,-2,-1,1,0,-1,-1
278413710745,-2,-2,-1,-1,0,3,-2,-1
278413733902,-1,-1,0,-1,1,1,1,-2
278413733902,0,-1,1,1,2,1,0,-1
278413734672,-1,-1,0,0,-2,-3,-3,0
278413734672,-2,0,-3,0,0,-3,-2,-1
278413756408,-2,0,-2,0,-3,-1,-1,-1
278413756408,-1,-2,-1,1,-1,0,0,-1
278413757298,0,-1,0,-1,-1,0,1,0
278413757298,0,-2,-2,0,-1,-1,0,-2
278413762590,0,-1,-1,-2,0,-1,0,-1
278413762590,0,0,-1,-2,-1,0,-1,-1
278413770891,-1,1,-1,-2,-1,0,-2,-1
278413770891,-2,0,0,-2,-2,-3,0,0
278413785074,0,-1,-2,-1,0,-3,-3,-1
278413785074,-1,-2,0,-1,-2,-3,1,-2
278413793378,-2,0,-2,0,-2,-1,0,1
278413793378,0,-1,-1,0,-2,-3,-2,0
278413808249,-1,0,-2,0,-1,1,-2,0
278413808249,0,-1,-1,-3,0,-1,-1,-1
278413809092,-2,-1,-1,1,-1,0,1,-1
278413809092,-1,0,-1,-1,-1,-1,-2,-1
278413832923,-1,-2,0,0,-1,-1,-1,1
278413832923,-3,1,-2,0,-3,-2,-1,-2
278413833754,-2,-2,-2,-1,3,0,1,0
278413833754,-3,-1,-1,-2,1,1,0,-1
278413845021,0,-1,1,1,0,0,-1,0
278413845021,-2,-1,-1,-1,-1,-1,-2,-2
278413853584,0,-1,-2,-1,-2,-1,-1,-1
278413853584,0,0,-1,-2,-2,-1,0,0
278413868639,-2,-2,-1,-3,0,-1,-2,-1
278413868639,-2,1,-1,-1,-1,-3,-2,0
278413875697,-1,-1,0,-1,-3,0,-2,-1
278413875697,-1,-2,0,0,0,1,1,1
278413882474,-4,1,-2,0,-3,-2,-1,-1
278413882474,0,-1,-1,0,1,1,-2,0
278413906550,0,0,-1,0,-2,0,1,-3
278413906550,0,-2,-1,-2,-3,-1,-2,-2
278413907991,-1,-1,-2,-1,-1,-2,1,-2
278413907991,-1,-2,0,-1,1,-1,0,-1
278413913428,-1,0,0,-2,-1,-3,-2,0
278413913428,-1,0,-2,-1,1,-4,0,0
278413928899,0,0,-1,-1,0,-2,0,-1
278413928899,0,-2,-1,-1,1,-2,2,-1
278413929649,-1,-1,0,-1,0,0,1,-1
278413929649,-2,-2,-1,-2,-3,0,-1,-1
278413942577,-2,0,-2,-1,1,1,-2,1
278413942577,0,1,0,0,-4,-1,-1,1
278413951515,-1,-1,-1,-1,-1,-1,-1,0
278413951515,-1,1,-1,-1,0,1,1,0
278413965064,-2,-2,0,1,0,1,-1,-1
278413965064,-1,-2,-1,-2,-2,-1,-2,-2
278413980889,-2,0,-1,-2,-2,-1,-3,-1
278413980889,0,0,-3,1,-2,0,-2,-2
278413988260,0,-2,-1,-2,-1,-1,-1,-1
278413988260,0,-2,-1,1,-1,0,1,0
278413989038,-1,-3,-1,-1,0,0,1,3
278413989038,1,-1,-1,-1,-2,-1,-2,-2
278414011483,0,-1,-1,0,-1,2,0,-2
278414011483,-3,0,-1,0,-1,0,-1,-1
278414012215,-2,-1,-3,-2,0,-2,0,-2
278414012215,-1,0,-2,-1,-1,-1,-1,-1
278414033885,-1,-1,0,0,-2,-3,-2,-2
278414033885,0,-2,1,1,0,-3,0,0
278414034670,1,-2,0,0,1,-1,-1,-1
278414034670,-1,-1,-1,1,2,-3,-1,0
278414048333,-2,-1,-2,-1,-1,-3,-2,-1
278414048333,-2,-1,-1,-2,-2,0,0,-2
278414049160,0,-2,-1,1,-2,0,-2,1
278414049160,-1,1,2,0,-3,-2,-1,-1
278414062755,1,0,0,-3,-1,0,0,-1
278414062755,-1,0,-1,-1,-2,-1,-1,-1
278414070732,0,-1,-1,-2,-1,-1,0,-1
278414070732,-2,-2,0,0,0,2,0,-2
278414085083,-1,0,0,-1,-1,-3,-3,0
278414085083,0,0,-2,-1,-1,1,-2,-1
278414093356,-1,-1,-1,-2,-1,-2,-1,1
278414093356,-1,1,-1,-2,0,-1,0,-1
278414108839,-1,0,-1,0,3,0,0,0
278414108839,-1,0,-1,-1,1,0,-1,-2
278414109476,-2,-2,0,-2,-2,-1,-2,0
278414109476,1,-1,-1,-2,-3,-2,-1,0
278414122718,-1,-2,-3,0,-3,0,0,0
278414122718,0,-1,-1,-1,-2,1,0,-1
278414130872,-2,0,-1,0,-1,-1,0,-1
278414130872,-1,-1,-1,1,-2,-2,-2,0
278414145033,-1,-1,0,0,-1,-1,0,0
278414145033,-1,-2,-1,-1,0,0,-1,0
278414153020,-2,-1,0,-2,-1,0,-2,-2
278414153020,-1,-1,-2,-1,2,-1,-1,0
278414168234,-2,0,-2,0,-2,-1,-3,0
278414168234,-1,-1,0,-1,0,-2,-2,0
278414168984,0,0,0,-1,-3,-4,-1,-1
278414168984,-1,0,-2,-1,-1,-3,-2,0
278414184035,-1,-1,0,0,2,-1,0,0
278414184035,-1,-2,-2,1,-3,0,-1,-2
278414190194,0,0,-2,0,2,0,0,0
278414190194,-1,-1,1,0,0,1,-1,-3
278414205135,-1,-2,0,-3,-1,-2,-2,0
278414205135,-1,-1,-1,-2,-2,-3,-1,0
278414213401,-2,0,-1,-3,-1,1,-2,0
278414213401,-1,-1,1,0,0,0,0,0
278414236499,0,-1,-1,-3,-3,-1,-1,-1
278414236499,-2,-2,-2,-1,-2,1,-3,-1
278414237224,-1,0,-1,-1,-2,-1,0,-1
278414237224,-1,0,0,-1,0,3,-1,-1
278414242594,1,-1,1,0,2,0,0,-1
278414242594,0,-1,-1,-1,-3,-3,-1,0
278414250065,-1,-2,-3,1,1,-2,0,-1
278414250065,-2,-1,-2,-2,-1,1,-1,1
278414265243,-2,0,-1,-1,-3,0,-1,-2
278414265243,-2,0,1,2,1,-1,-2,-1
278414273229,0,-1,0,-2,-2,-1,-1,-2
278414273229,0,-1,-1,-3,-2,-2,-1,0
278414288274,-1,0,-1,-1,-2,3,-1,-2
278414288274,-1,0,-3,0,-1,-1,-2,-1
278414289004,-2,0,-1,0,-1,0,-2,0
278414289004,0,-2,-1,1,1,-2,-2,0
278414310769,0,-3,-2,0,0,-1,0,0
278414310769,-1,-1,0,-2,-1,1,1,-2
278414311632,-1,-2,0,-1,-1,-2,1,-1
278414311632,2,-1,-1,0,-2,-3,-1,-1
278414325235,-2,2,-1,-2,0,-3,-2,0
278414325235,0,-1,-1,0,-1,-1,-1,-1
278414333285,0,-2,0,0,-3,1,-2,1
278414333285,-1,-2,0,-1,0,1,0,0
278414347645,-1,-1,0,-2,-3,-4,0,-2
278414347645,-2,0,-1,-3,-1,-2,0,-1
278414355460,-1,-1,-1,0,1,0,-1,-3
278414355460,-2,-2,-2,-2,-1,-1,-1,-1
278414364041,0,-1,-1,0,-1,-1,0,-1
278414364041,0,-1,0,0,-1,1,0,2
278414386574,0,-2,0,-2,-1,-2,-1,-1
278414386574,-1,-4,0,0,-2,-1,1,-3
278414388005,-3,0,0,0,1,-1,-2,-1
278414388005,-2,-1,-1,-1,0,-1,0,-2
278414393406,-2,0,-2,0,2,-1,-1,0
278414393406,0,0,-1,0,0,0,0,0
278414407660,-2,-1,-1,-3,0,0,-2,-1
278414407660,0,-1,-1,-1,-2,-1,-1,-1
278414415983,-2,-1,0,0,-1,-1,-3,0
278414415983,-2,0,-2,-2,-2,-1,1,-1
278414422544,-1,0,0,-2,-3,-1,0,0
278414422544,0,-1,-1,-1,0,-2,-2,0
278414430069,-1,-2,-1,-1,-1,0,0,-2
278414430069,-1,-1,1,1,-1,0,-2,1
278414461538,-1,-1,-2,-1,0,0,-3,-1
278414461538,0,-1,0,0,-1,0,-2,-2
278414462165,0,-1,-1,-1,-2,-2,0,-2
278414462165,-1,-1,-1,-2,0,1,-1,-1
278414467738,-1,-3,-1,-2,-1,-1,1,-2
278414467738,-3,-1,0,-2,-1,-2,0,-1
278414475781,-1,-1,-2,-3,-1,-3,-1,1
278414475781,-2,1,-2,-1,-1,-1,-2,0
278414490858,-1,-1,-1,0,-2,-2,-1,0
278414490858,-2,-1,-1,0,0,-2,-1,0
278414491543,1,-1,-1,-1,-1,1,-3,-1
278414491543,-1,-1,1,-2,-2,0,-1,-2
278414505023,0,-3,0,-1,-1,0,-3,-1
278414505023,0,0,-1,-2,-3,-1,-1,-1
278414513398,0,-2,-3,-2,0,-1,-1,-2
278414513398,0,-1,-1,-1,0,1,-1,-1
278414536338,0,-1,-2,0,1,0,0,-1
278414536338,-1,-2,0,0,-1,-3,-1,-1
278414537103,-1,1,0,-1,-1,1,-1,-1
278414537103,-1,-1,-1,-1,0,-2,-1,0
278414550763,0,0,0,0,0,0,-1,0
278414550763,-1,-2,-3,-1,-1,1,0,0
278414551546,-2,-1,-2,-2,0,-1,1,0
278414551546,-1,-1,-1,-2,-2,0,-1,0
278414566464,1,0,0,-1,-1,-2,-1,-1
278414566464,-1,0,-1,0,-2,-3,-1,-1
278414581116,-2,-2,-1,-1,-1,-5,-2,-2
278414581116,0,1,-2,-3,-1,0,0,-2
278414589017,0,-1,0,-3,-1,-1,0,1
278414589017,-1,0,0,-1,-1,1,-2,-2
278414595751,-1,-1,0,1,0,0,0,-1
278414595751,0,0,-1,0,-2,-3,-2,0
278414610857,-2,-2,0,0,0,-2,0,-1
278414610857,0,0,0,-1,0,1,-3,0
278414611487,-3,-1,-2,0,-2,-1,1,-1
278414611487,-1,0,-2,0,-1,-1,-2,1
278414625094,-1,1,0,-2,-2,-2,0,0
278414625094,-1,-1,-1,0,-2,-1,-2,-2
278414633255,0,1,-2,-2,-2,0,0,1
278414633255,1,0,0,1,0,0,-2,-1
278414664001,-1,-1,-2,0,0,1,-1,0
278414664001,0,0,0,-1,0,-3,-1,-1
278414664624,0,0,0,-1,1,0,-2,-1
278414664624,-1,-3,-1,-1,-1,-3,0,-1
278414670998,1,-1,1,-2,1,0,-1,1
278414670998,-1,-2,-1,-3,0,0,-1,1
278414671483,0,-1,-1,-3,-2,-3,-2,-1
278414671483,-2,0,-2,-2,-4,0,-2,1
278414693892,-2,-1,-2,-1,-2,2,-2,-3
278414693892,-1,-2,-1,-1,-3,0,0,0
278414694645,0,-2,0,0,0,0,1,-2
278414694645,-1,0,1,0,0,-1,-1,-1
278414707686,1,-1,0,-1,0,-2,-1,-1
278414707686,1,1,-2,-1,-1,-3,-1,-1
278414715822,-1,-1,-2,1,0,-1,-1,0
278414715822,-1,-2,-1,-1,1,-1,0,-1
278414739074,-2,-2,-1,0,1,-2,-1,-1
278414739074,-1,-1,0,0,-2,0,-2,-1
278414739768,-1,-2,-1,-3,-3,-1,-1,-1
278414739768,0,0,0,0,0,-1,0,-1
278414745117,0,-1,-2,-1,-3,0,-1,-1
278414745117,-1,-2,0,-1,-3,-2,-1,-1
278414753374,-2,-1,0,-1,-1,0,-2,-1
278414753374,-2,-1,1,-1,1,0,0,0
278414768068,0,0,0,-1,1,0,1,-2
278414768068,0,-1,-2,-1,-2,0,0,-1
278414775854,1,0,-1,0,-4,-2,-1,1
278414775854,-2,-2,-2,-2,-3,-2,-1,-1
278414790824,-1,-1,-2,2,0,1,0,0
278414790824,-2,0,-1,-1,0,0,-1,-2
278414791520,-1,0,-2,-1,-2,2,1,-2
278414791520,-1,-3,-1,-1,-3,-2,-1,-1
278414814056,-2,-2,-1,-1,-1,-4,-2,-1
278414814056,-2,-1,-1,-1,0,-2,-2,0
278414814661,0,0,-2,-2,2,-2,-1,-1
278414814661,0,0,-2,-1,-1,-1,0,0
278414827721,-1,0,-2,-2,-2,1,0,-1
278414827721,-1,-1,0,1,1,0,0,-2
278414843242,-1,-3,1,0,0,-1,0,-1
278414843242,0,-1,-1,-1,-1,-1,-2,0
278414867048,0,-1,-1,-1,0,-2,-2,-1
278414867048,-1,-1,-2,-1,1,0,-1,0
278414867834,0,0,0,-1,-3,1,-1,-1
278414867834,0,-3,0,0,0,1,1,-1
278414869460,1,-1,-2,-2,-1,-3,-1,-1
278414869460,-1,-1,0,-2,0,-1,-3,1
278414873300,-2,-1,-2,-1,0,-1,-2,-2
278414873300,-2,-1,-1,-1,0,0,-2,0
278414887677,0,1,-1,-1,-1,0,0,-1
278414887677,-2,0,-3,-1,1,2,0,0
278414895728,0,-2,-2,-1,-2,-2,0,0
278414895728,-2,0,0,-1,-1,1,0,-2
278414918887,-1,-3,1,-1,0,-2,-2,0
278414918887,0,-1,-1,-1,1,-1,-2,-2
278414919675,-3,-1,-1,-2,1,-2,-2,-1
278414919675,-3,0,0,-3,-1,-1,0,-1
278414941402,-1,-1,-1,-1,-1,0,0,0
278414941402,1,-2,-2,0,-2,0,1,-2
278414942236,-1,-1,0,-1,-2,-1,-2,-1
278414942236,1,-1,-2,-1,0,0,-1,-2
278414947621,-1,-1,0,-1,0,1,-1,0
278414947621,-1,-1,0,-2,-1,0,-2,-2
278414955832,-1,0,-2,-1,0,0,-2,-1
278414955832,0,-1,-3,-3,-5,-3,-3,-3
278414970746,-2,-1,-2,0,-2,-2,-1,0
278414970746,-1,-2,-3,1,-1,-2,1,-1
278414971497,0,0,0,2,1,-1,-1,-1
278414971497,0,-1,0,2,0,1,0,0
278414994012,-3,-1,0,-2,-3,0,1,-1
278414994012,0,0,-1,-2,-1,-2,-2,1
278414994631,-2,-2,-1,-1,-1,0,-1,-1
278414994631,0,-1,-1,-1,-2,-2,-1,-1
278415016517,-1,-2,-1,0,0,-2,0,-1
278415016517,-1,1,-1,-1,0,-1,0,0
278415017188,-1,0,0,-2,-1,1,-2,0
278415017188,0,0,0,1,0,-1,-2,0
278415030680,0,-1,0,0,-1,0,-1,-1
278415030680,0,-1,-1,-3,-1,0,0,-1
278415031490,0,-1,-2,-3,-1,-2,-3,-1
278415031490,-2,0,1,-1,-2,0,0,-1
278415046552,-1,0,-3,0,-1,4,-1,-2
278415046552,-1,0,1,1,-2,0,0,-1
278415053301,0,0,-1,1,-3,-2,-2,-2
278415053301,-1,1,-1,-2,3,-3,0,2
278415068123,0,1,-2,0,-2,-1,-2,-1
278415068123,0,-2,-1,-1,0,-2,1,0
278415075724,-2,0,-1,-3,0,1,0,1
278415075724,-2,-1,-1,-1,-1,-4,-2,-2
278415090583,1,-2,-2,-1,-1,-2,-2,-1
278415090583,-1,-1,-1,-1,-2,-2,-1,0
278415098230,1,-2,0,-1,-2,-2,2,-1
278415098230,-1,-3,0,0,0,1,1,-2
278415105001,-2,0,1,-1,2,0,0,-1
278415105001,-2,-1,-1,-2,1,2,-2,0
278415120756,-1,-2,-1,-1,-2,-1,0,-1
278415120756,0,-2,-1,-3,-2,0,1,-1
278415135581,-1,-1,-1,-2,-1,-2,-1,0
278415135581,0,-2,-1,-1,0,0,-1,-1
278415143386,-3,-1,0,0,0,1,0,-3
278415143386,1,-1,-3,-1,-2,-2,-2,-1
278415159065,-2,0,-2,-2,-1,-1,-3,0
278415159065,-2,-2,-1,0,-1,-3,-1,0
278415159684,-1,-1,-1,2,0,-1,-2,-1
278415159684,-2,1,-1,1,0,0,-2,-1
278415173865,0,-1,-1,-2,-1,-3,0,0
278415173865,0,0,-1,-1,-1,-1,-1,-1
278415174845,1,-1,-2,0,1,0,0,0
278415174845,-1,-2,-1,-2,1,2,-1,-1
278415196490,-1,1,1,-1,-2,0,-1,-1
278415196490,1,-1,-1,-2,-1,-1,-3,-2
278415197161,-1,0,-1,-2,-1,-1,1,-1
278415197161,0,-1,-1,-1,-3,-1,-1,-1
278415219401,-1,-2,-2,0,0,-1,-1,-2
278415219401,0,0,-1,0,1,0,2,-1
278415220177,-1,0,-1,-2,-1,-2,-1,1
278415220177,-2,0,0,-1,-1,-1,0,1
278415225027,-1,-1,1,0,-2,-4,0,-1
278415225027,-2,0,-1,2,-2,-2,0,-1
278415233354,1,-2,1,-1,-2,-1,-3,-2
278415233354,-1,0,-2,-2,-2,0,0,0
278415248002,-2,-2,0,0,-4,0,-1,0
278415248002,-1,0,-2,-1,-1,-2,-1,0
278415255916,-2,0,-1,0,-1,-2,-1,-1
278415255916,1,-2,-1,1,1,0,-1,-1
278415270060,0,-1,-1,-2,0,1,-1,-1
278415270060,-1,0,-1,0,0,0,-2,0
278415295207,0,0,-1,-3,-1,0,0,-1
278415295207,-1,-1,-1,-3,-1,-1,-3,-1
278415296823,-2,-2,-1,0,-1,0,-1,-2
278415296823,-1,-1,-3,-1,-3,-1,0,0
278415297797,-2,-2,-3,0,0,0,-1,0
278415297797,-1,-1,-2,-1,0,-2,-1,-1
278415307735,0,-2,-1,0,-1,-1,0,0
278415307735,-1,0,0,-2,0,-2,-1,0
278415323267,-1,-2,-1,-2,-3,-2,0,-1
278415323267,-1,-1,-1,0,-2,-4,1,-2
278415330185,0,-1,-1,0,-1,-1,-1,-1
278415330185,-1,-1,-2,-1,-1,1,-1,-1
278415339041,-1,-2,-1,0,-1,-3,-2,0
278415339041,1,0,-1,-2,-2,-3,0,-1
278415345006,0,0,0,-1,-1,-2,0,0
278415345006,-1,-2,0,-2,-1,2,1,0
278415353275,-2,-1,0,-2,-2,0,-1,0
278415353275,-1,-3,-1,-1,-1,-1,-3,-1
278415367632,-1,-1,-3,-1,-1,-4,0,-1
278415367632,-2,0,0,0,1,-1,-1,-1
278415375849,-1,0,-1,1,-1,-1,-1,-1
278415375849,0,1,0,0,-1,-3,0,0
278415399363,-1,-1,0,0,0,0,-2,-1
278415399363,-3,-2,0,-2,-1,-2,-1,-2
278415400143,0,0,-2,-1,-2,0,-1,-1
278415400143,-1,0,-1,1,-1,-1,-1,1
278415421366,-1,0,-1,0,0,2,-1,0
278415421366,0,-2,0,0,-4,-2,-2,0
278415422179,-1,-1,-1,-2,1,-1,-3,0
278415422179,-2,-1,0,1,1,1,-1,-2
278415427626,1,0,0,0,-2,1,0,-3
278415427626,-1,-2,-1,0,0,1,1,-1
278415435860,0,-2,-2,-1,-1,0,0,-2
278415435860,-1,0,-1,-2,0,-1,-1,-2
278415450134,-2,-1,-1,-1,-2,-1,-1,-1
278415450134,0,-1,-1,-2,-3,-2,-2,-3
278415459042,0,0,-1,0,1,-1,0,-1
278415459042,-1,-2,-1,0,1,0,0,1
278415473951,-1,-1,0,0,0,1,0,-1
278415473951,0,-1,0,-3,-3,-1,-2,0
278415475505,-2,-1,-1,-2,-3,-4,-1,0
278415475505,-1,0,-2,0,0,0,-1,0
278415496916,-1,0,-2,-1,0,-1,-1,-3
278415496916,-1,-1,0,0,0,-1,0,-1
278415498422,-2,-1,-1,0,-1,1,0,-1
278415498422,-1,-3,1,0,-2,-3,-1,0
278415510048,0,-2,-1,-2,-3,-2,0,0
278415510048,-1,0,0,0,0,3,0,-1
278415525041,1,0,-1,0,0,-2,0,-1
278415525041,0,-1,1,0,-1,-1,0,-2
278415533843,0,-1,-2,-3,1,-2,-3,0
278415533843,1,-1,-2,-1,1,-4,-1,-1
278415535424,0,-1,-1,-2,-1,1,0,0
278415535424,-1,-1,-2,-2,-3,-1,-1,-2
278415547560,0,-2,0,-2,-2,-1,-1,-1
278415547560,0,1,-1,2,-3,1,-2,-1
278415572127,0,-1,0,-3,0,1,0,-2
278415572127,1,0,-2,-1,0,-1,-1,-2
278415573139,-1,-1,0,-1,1,-1,1,0
278415573139,-1,-2,-3,-2,0,-2,-2,-1
278415579040,1,-2,-1,2,0,-1,-2,-1
278415579040,-2,-1,-1,0,-2,0,-1,-1
278415601379,-2,0,-2,0,-1,0,-1,-1
278415601379,-2,1,0,-2,-2,0,-1,-1
278415603021,-1,0,-1,-1,-1,-2,-1,0
278415603021,1,-1,-1,-2,-1,-3,0,-1
278415607639,-1,0,0,-2,-2,-4,-1,-1
278415607639,-1,-1,0,-1,-1,-2,0,-1
278415617169,0,-2,0,-2,-1,1,-2,0
278415617169,-1,1,-1,0,1,1,0,-1
278415630140,-1,-1,-2,-2,0,2,-1,-1
278415630140,-2,-2,-2,-1,0,-1,1,-3
278415646506,0,-1,-2,0,1,-1,-2,-1
278415646506,0,-1,-1,-2,0,2,-2,0
278415653272,1,-1,-1,-2,-4,-3,-3,-1
278415653272,-2,-1,-1,-1,0,-1,0,2
278415660206,-2,-1,0,0,0,-2,-2,1
278415660206,-2,0,-1,0,2,-1,-1,-2
278415676595,-2,0,1,-1,-1,0,0,-1
278415676595,1,-1,-2,-2,-5,-3,-3,-2
278415677995,-1,0,0,0,-3,-1,-1,-1
278415677995,0,-1,-1,-1,-1,0,-1,-1
278415699078,-1,-2,-1,0,0,1,0,-1
278415699078,-2,0,0,-1,1,1,0,1
278415700485,-3,-1,1,-1,0,-1,1,-1
278415700485,-1,-2,-1,-2,-5,-2,-2,0
278415720691,-1,0,-2,0,-2,3,1,0
278415720691,-1,-2,-3,0,-1,1,1,-2
278415729669,0,0,-3,0,1,-1,-1,-2
278415729669,-3,1,-2,-2,0,-1,0,1
278415730625,-3,-2,0,0,0,-1,0,-1
278415730625,-1,-1,1,1,0,0,-1,0
278415750619,0,-1,0,-1,-3,-4,-2,0
278415750619,-1,-1,0,0,-2,-1,-3,-1
278415751634,1,0,-1,0,-1,-2,0,-2
278415751634,-1,1,0,-3,0,0,0,-1
278415774710,-1,0,-2,0,0,1,0,-1
278415774710,0,-3,0,0,-1,-1,0,-1
278415775656,-1,-2,0,-2,-4,-5,-2,1
278415775656,-1,0,-1,-1,1,-3,-3,-2
278415781486,-2,0,-1,-2,0,-1,0,-1
278415781486,-1,-1,-1,-1,0,-1,1,-2
278415787731,-1,-2,-1,-1,1,0,0,0
278415787731,0,-1,-1,-1,0,-1,-2,-1
278415796536,-2,-1,-1,-2,-6,-1,-2,1
278415796536,0,-2,-1,-1,-2,1,-1,-1
278415810070,-1,-2,-1,1,-2,1,-1,-1
278415810070,-1,-1,0,0,0,-3,1,-2
278415825048,0,-2,-1,-1,2,0,0,1
278415825048,0,-2,0,0,0,0,1,-1
278415849582,-2,0,-2,-1,-2,-1,-2,-2
278415849582,-1,-3,-1,2,-3,-1,-1,-2
278415851134,-1,-2,0,-1,0,-1,0,-1
278415851134,0,-1,-1,-1,0,-2,0,-1
278415851983,0,0,-2,-1,1,-2,1,-1
278415851983,-1,-2,-1,-1,0,0,0,-2
278415856563,-1,1,-3,-1,-2,0,1,-1
278415856563,-2,0,1,-1,-1,0,-2,-1
278415878916,1,0,0,-2,-3,-1,-2,-1
278415878916,-1,1,0,0,-2,-1,0,-1
278415880562,-1,-3,-1,-1,-1,0,-1,-2
278415880562,0,1,0,-1,-2,1,-1,-1
278415901385,-2,0,0,-1,1,-1,-1,0
278415901385,0,-1,0,-2,-2,-2,-1,1
278415903043,0,0,1,-1,0,-2,-1,0
278415903043,-1,0,-1,-2,0,-2,-1,-1
278415917039,-1,0,-2,-1,0,-3,1,-1
278415917039,-1,-1,-2,-3,-1,-1,-1,0
278415922520,-1,0,0,-3,-2,0,-1,-1
278415922520,0,-2,-2,-1,2,-4,-1,-1
278415930195,-2,-2,0,0,1,1,3,-2
278415930195,-2,0,-1,0,-2,-2,-2,1
278415938939,-2,-2,-1,-1,0,-2,-1,-1
278415938939,0,-1,-1,-1,-2,1,0,-1
278415953159,-1,-1,-1,0,-2,0,-1,-1
278415953159,-1,-1,-1,-2,0,0,-2,-1
278415978516,-1,0,-2,-1,-1,-1,-1,0
278415978516,-3,0,-1,-1,-3,0,-2,0
278415979543,0,-2,-2,-1,-1,-2,0,1
278415979543,-1,0,-2,-2,0,-1,1,-1
278415982617,-1,-1,0,1,1,-1,-2,0
278415982617,1,-2,0,-2,-3,-3,-2,-1
278416006515,-2,-1,0,-1,-2,-4,-2,-1
278416006515,0,-1,-1,-2,-2,-2,-2,1
278416007988,0,-2,-1,1,0,1,0,-3
278416007988,-1,0,-1,-2,0,1,0,-3
278416012541,-1,-1,0,-1,-2,-2,-4,-2
278416012541,-3,0,1,1,0,-1,0,-2
278416029701,-1,-2,-2,0,-1,-3,0,-1
278416029701,-1,-2,-1,-1,0,-2,0,2
278416030488,0,-2,-3,-1,1,0,0,-2
278416030488,0,-1,-1,1,-2,-1,-1,-1
278416052151,0,1,0,-1,-3,-1,-2,0
278416052151,-2,1,-2,1,-2,-1,-2,0
278416052989,-2,0,1,-1,-2,2,-2,0
278416052989,1,-2,-2,-1,2,1,0,0
278416059039,0,-2,-1,-2,0,-2,0,-2
278416059039,-2,0,0,0,-2,-1,0,0
278416081553,-1,0,0,0,-1,1,0,-1
278416081553,0,0,-2,0,-1,0,0,-2
278416083087,-1,0,0,-2,0,-2,0,-1
278416083087,0,-2,0,-1,-1,-1,-1,-2
278416087558,0,-1,0,0,-2,-3,0,0
278416087558,-3,-1,0,-2,-3,-3,-1,1
278416104014,-1,-2,-2,-2,-1,-1,-1,-1
278416104014,-2,-2,0,-2,0,-1,0,-2
278416119496,-1,0,-2,-2,0,1,-1,-1
278416119496,-1,-1,-2,-1,0,1,0,0
278416125016,0,0,-3,-2,-2,1,-1,-1
278416125016,-1,1,-3,2,-1,-2,-1,-2
278416132621,-1,-2,0,-1,-3,-3,-1,-1
278416132621,0,0,-1,-1,0,-1,-1,-2
278416157060,-2,-2,-2,1,-1,-1,-3,-1
278416157060,1,-1,-1,-2,-1,-1,-1,-1
278416157904,0,0,-3,1,-2,1,-1,0
278416157904,1,-1,-1,-2,-3,-1,0,0
278416159466,-1,-2,-1,-1,-2,-1,-1,-1
278416159466,0,-1,-1,1,-1,0,-1,-2
278416178988,-1,1,-2,-1,-1,0,-1,-1
278416178988,-2,0,1,0,-1,0,-1,0
278416180473,-1,0,0,-1,-3,-1,0,0
278416180473,-1,0,0,0,-2,-2,-1,-2
278416192690,-2,-2,-1,-3,-1,-1,-2,-2
278416192690,-1,-2,-2,-1,-1,1,-2,-1
278416201501,-1,-2,-2,0,0,0,1,0
278416201501,-2,0,-1,-1,0,-1,0,1
278416207543,1,-2,-1,-1,-1,-3,0,-2
278416207543,-2,-3,-1,0,-1,-3,-1,-4
278416217230,-2,0,0,-1,-1,-2,-1,-1
278416217230,-1,-1,0,-3,-2,0,-3,0
278416230496,1,-1,0,0,0,2,0,0
278416230496,0,-2,-2,-1,0,-2,0,0
278416254689,0,0,0,-1,-2,-2,0,-1
278416254689,-1,-2,-1,-2,-2,-1,-1,-1
278416255628,-1,0,0,-1,-2,-1,0,-2
278416255628,-2,-1,-1,0,-4,-1,0,-1
278416268222,-1,-1,1,1,-1,0,-2,-3
278416268222,0,-1,-1,-3,2,1,-1,-1
278416269003,-3,-3,0,0,-2,-1,-3,1
278416269003,-1,0,-2,-1,-1,1,-2,0
278416282758,-1,-1,0,-2,0,0,-1,0
278416282758,1,1,-1,0,-1,-1,1,-2
278416290029,-2,-4,0,1,0,0,0,-1
278416290029,-2,0,-1,-1,-1,1,-1,0
278416306521,-1,0,-1,0,0,1,1,1
278416306521,-2,-3,1,-1,-1,-1,1,1
278416329650,0,-2,-1,-1,1,-2,-1,-2
278416329650,1,0,-2,-2,-2,-4,-1,-1
278416331170,0,0,-2,0,-1,-1,-1,-2
278416331170,0,0,-2,2,-1,-2,2,-1
278416332074,-1,-1,-1,-2,-1,0,0,-1
278416332074,-1,-1,0,-1,-1,-1,1,-2
278416336582,0,-1,-1,-2,2,1,-1,-2
278416336582,0,0,-1,-1,-4,0,-2,-1
278416350490,1,2,-1,-2,-2,-2,-3,0
278416350490,-2,-1,-2,-2,-1,1,-3,-2
278416359047,1,-4,1,-1,-1,-2,0,0
278416359047,-1,-2,-1,0,-2,-1,0,0
278416381519,-1,0,1,-1,-2,-1,0,0
278416381519,-1,-3,0,-1,3,-2,-2,0
278416382993,0,-2,-1,-1,-1,0,-1,-2
278416382993,-1,0,-1,-1,-1,0,-1,2
278416404021,-2,1,0,-1,0,0,-1,-2
278416404021,-1,-1,-1,1,-1,-1,-1,-1
278416405549,-2,-1,-1,-1,-2,-1,0,-1
278416405549,0,-2,-1,-2,-4,-2,-2,-1
278416410043,-2,-1,-1,-1,-4,-3,-1,-2
278416410043,1,-1,-1,0,-3,-2,-1,-1
278416418959,-1,1,-2,1,0,0,-1,-1
278416418959,-1,-3,-1,0,2,2,0,-1
278416433021,0,-2,-1,-1,-1,-1,-2,1
278416433021,0,0,-3,-1,0,-1,-1,-1
278416441474,-1,-1,-1,-1,-3,-4,-2,0
278416441474,-2,-2,-1,0,0,-2,-1,-1
278416456863,0,0,0,-1,0,2,-1,-2
278416456863,-2,-1,1,-3,-1,-1,-1,0
278416458431,-1,0,-1,-2,-2,0,-1,-1
278416458431,0,0,-2,-2,-1,-3,-1,0
278416470604,-1,-3,-1,-1,0,-2,-2,1
278416470604,-1,-1,0,-1,-3,-2,-2,-3
278416479044,-1,-2,-1,-1,-1,-2,-2,-3
278416479044,0,1,0,-3,0,1,-1,-2
278416492524,-1,-2,-1,-2,0,0,-1,-2
278416492524,-1,-2,-2,1,-1,0,2,0
278416508997,-1,-1,-2,0,-2,0,-1,1
278416508997,-1,0,-1,-1,0,1,-2,-1
278416532079,-1,-1,0,-2,-1,1,1,1
278416532079,0,1,0,-1,1,2,-1,-1
278416533670,-1,-1,0,-2,-2,-2,-2,0
278416533670,-3,-3,-2,0,1,2,2,-1
278416534449,-1,-1,-2,-2,-3,-2,0,-1
278416534449,-2,0,-1,-4,-3,-2,0,-1
278416538995,-2,0,-2,-1,-2,-2,0,0
278416538995,-1,-1,1,-2,-4,-5,-4,-1
278416561349,-1,1,-2,-1,1,0,-2,0
278416561349,-1,-2,-1,0,-2,0,-1,-1
278416562950,0,-1,1,-1,1,-1,-1,-2
278416562950,0,-1,-2,-1,0,-1,0,0
278416583874,-1,-2,-2,-1,0,-2,-1,1
278416583874,-1,1,-1,0,1,-1,-2,-1
278416585477,1,-1,0,-1,0,0,-1,0
278416585477,-2,-2,1,-2,-1,-1,-1,-1
278416606384,-2,0,0,-2,-3,-2,-1,-2
278416606384,-1,0,0,1,-1,-2,-2,0
278416607997,-1,-1,-1,-1,-1,-1,0,-1
278416607997,0,-1,-2,0,-1,-1,-2,-1
278416612514,0,0,-2,2,1,-1,0,-1
278416612514,-1,0,-2,0,-1,0,-1,1
278416621544,1,0,-1,-1,-1,0,-1,-2
278416621544,-1,-2,-1,-1,-1,-2,-2,-1
278416636475,0,0,0,-1,0,-2,-3,-2
278416636475,-1,-1,0,0,0,-3,-2,-1
278416637998,-2,1,-2,-1,1,0,0,1
278416637998,-1,0,-2,-1,-2,0,1,0
278416658835,-3,-2,-2,-2,-3,-2,-2,-1
278416658835,-1,-1,0,-1,-1,0,0,-1
278416660456,-1,-3,-1,1,-2,1,-1,0
278416660456,-1,-1,1,1,-4,-1,-1,-2
278416681456,0,0,-1,-1,-2,-1,0,-1
278416681456,1,-2,1,-2,1,-2,-1,0
278416683044,-2,-1,-2,-3,-2,0,0,-1
278416683044,1,-1,-2,-2,0,-1,-2,0
278416696381,-1,-2,0,0,-1,1,-2,-1
278416696381,-1,-1,-3,-2,1,3,0,-2
278416697985,1,-1,0,-1,3,1,0,0
278416697985,-1,-1,-1,1,1,-1,0,1
278416710512,0,0,-1,-1,-2,-3,0,-1
278416710512,-1,-1,-1,-1,-2,-2,-1,-2
278416718994,-1,-2,-1,1,-3,-3,-1,-1
278416718994,-1,-2,-1,-2,1,0,-1,-1
278416733005,-1,-2,0,-1,0,-2,-1,-2
278416733005,-2,-1,-2,-2,-5,-3,-2,-3
278416749713,-2,1,-1,-3,-1,0,-1,0
278416749713,-3,0,1,-1,0,1,-2,0
278416756492,-2,-1,0,1,2,2,1,0
278416756492,-1,0,-1,-1,-1,2,1,1
278416757907,0,-1,-1,1,-3,-2,-2,-1
278416757907,1,-1,0,0,-1,2,1,-1
278416770140,1,-1,-1,-1,-1,0,0,-1
278416770140,0,-1,2,-2,-3,-2,-2,0
278416786508,0,-1,-2,-2,-1,-1,-1,1
278416786508,1,-1,-2,-2,0,-2,0,0
278416808990,-2,-2,-1,-1,0,-1,-2,1
278416808990,-1,-1,-1,1,-1,-1,-1,-1
278416810430,-3,-1,0,0,1,-1,0,0
278416810430,-2,-2,-1,-1,-4,-4,-1,-2
278416815660,-1,-1,-2,-2,-1,-4,-3,-2
278416815660,-1,-2,-1,-2,-2,-1,-1,-1
278416824008,-2,-1,0,-1,-2,-1,-2,1
278416824008,0,0,0,-1,-1,1,-2,-2
278416830077,0,1,0,0,-3,-1,0,0
278416830077,0,-1,-1,-1,-1,0,-2,-1
278416839026,-1,0,-1,0,-1,-1,0,-1
278416839026,-2,-1,0,-1,0,1,0,-1
278416861526,0,0,-2,0,0,1,-1,-1
278416861526,-1,-4,1,0,-1,0,0,0
278416863025,-1,-1,-1,0,-3,-2,-2,-1
278416863025,-1,0,1,0,0,-2,-1,-1
278416884293,-1,-1,-2,-1,0,0,0,0
278416884293,-1,0,0,-1,1,0,1,0
278416885954,1,-1,-2,0,-1,2,0,-1
278416885954,-1,-1,-3,-1,-4,-4,-2,0
278416890143,-1,0,-1,0,0,-3,0,0
278416890143,-1,1,-2,-1,-1,-2,-1,0
278416899781,-1,-2,1,-1,-2,1,0,-1
278416899781,-1,0,-2,0,0,0,-2,-1
278416912557,1,-1,-1,-1,-2,1,0,-1
278416912557,-2,-2,-1,-2,-2,-1,-1,-2
278416921522,-1,-2,0,-2,-2,-2,-2,-2
278416921522,-1,-2,0,0,-1,-1,-3,-1
278416937022,-1,-1,1,-2,-1,-4,0,-1
278416937022,-1,0,-1,-1,2,0,0,0
278416938426,-1,-1,-1,-2,1,0,0,-3
278416938426,-3,0,-3,-2,-1,-2,-2,-2
278416958976,0,-2,0,0,-2,0,-1,0
278416958976,-1,-1,-1,2,-2,-1,-1,-2
278416960523,2,-1,-1,-1,1,1,0,0
278416960523,0,0,-2,-2,-1,-2,0,0
278416972625,-2,-2,-2,0,0,0,0,-1
278416972625,0,0,-2,-2,-1,-1,-2,0
278416988994,0,0,-1,-4,-3,-4,-2,0
278416988994,2,-2,0,-2,-1,1,-1,-2
278416996488,0,-2,-1,0,-2,0,0,-2
278416996488,-2,-2,0,-2,0,0,-1,2
278416997977,1,1,-1,-1,-1,-3,-1,-1
278416997977,-1,0,0,-1,-1,-1,-2,-1
278417010072,-1,0,-2,0,0,-1,-1,0
278417010072,-1,-1,-1,1,0,-1,1,0
278417018987,0,1,-1,0,-1,-3,2,-1
278417018987,-2,-2,1,0,1,0,1,0
278417041465,-1,0,-1,-3,-3,1,-1,-2
278417041465,-1,-1,-2,1,-1,-3,-2,-1
278417042964,-1,-3,-2,-1,-2,-2,-1,0
278417042964,-1,-3,0,-2,0,-2,-1,-1
278417063884,-2,-1,0,-1,2,-3,-1,-1
278417063884,-1,-1,-2,-3,1,1,-1,0
278417065486,-2,0,0,-1,2,1,-3,-1
278417065486,-1,1,0,1,-2,-3,0,0
278417086441,0,0,-2,0,-2,-2,0,0
278417086441,-2,-1,-2,-1,-2,-2,0,-2
278417087997,-2,-2,-2,0,-1,1,-1,-1
278417087997,-1,-2,0,0,-1,-1,-1,-2
278417092548,-2,-3,-1,-1,1,1,0,0
278417092548,0,0,0,-1,0,-1,0,-2
278417102175,0,-1,1,-2,-2,-2,-1,-1
278417102175,1,1,1,0,-4,0,-2,0
278417116532,-1,0,-2,-1,-4,-1,-4,0
278417116532,-1,0,-2,1,-1,0,0,0
278417117956,0,-2,-1,0,-1,-1,-1,-2
278417117956,-1,-1,-1,-2,0,-2,0,0
278417139052,1,0,0,0,0,-2,-2,-3
278417139052,0,-1,-1,-2,-1,0,0,0
278417140444,-2,-1,-1,0,0,-1,-1,-1
278417140444,-1,-1,0,-2,-2,-2,-1,0
278417161319,0,-1,-1,-1,2,1,-2,0
278417161319,-1,-1,-1,0,-4,-1,0,-2
278417162938,-1,-1,-1,0,0,2,-1,-2
278417162938,0,0,-1,0,0,2,0,0
278417175780,-1,-1,-1,0,-1,-3,2,0
278417175780,0,-2,0,-2,-2,-2,-2,1
278417190698,-1,0,-1,-1,-2,-3,-2,1
278417190698,-1,-3,-1,-2,-1,0,0,-1
278417191523,-1,1,-1,-2,0,-1,-1,-1
278417191523,-3,-1,-2,0,1,1,0,-1
278417213324,-1,0,-2,-1,0,0,-1,-2
278417213324,0,0,-2,0,-2,-2,-2,0
278417213910,-1,-1,-2,0,-1,-3,-2,0
278417213910,2,-1,-1,0,0,0,-1,-1
278417246042,-2,-1,0,-1,1,-1,0,0
278417246042,-1,-1,-2,-1,0,2,0,-1
278417247016,-3,-1,-1,-2,-1,-1,-2,1
278417247016,0,1,-2,0,-1,-2,-2,0
278417250728,-1,-1,0,-1,0,2,-1,-1
278417250728,-1,-1,0,-1,2,3,-1,-2
278417251610,-2,-2,1,-1,-1,1,-1,-1
278417251610,-1,-1,-2,-2,1,-1,0,0
278417266518,1,-2,-1,0,-3,-3,-2,-1
278417266518,-1,1,-1,1,-2,-2,0,-1
278417272533,0,0,0,-2,-2,-1,1,-1
278417272533,-1,-1,-1,-3,0,-3,1,-2
278417281476,-1,-2,-1,0,-1,0,1,0
278417281476,-2,-1,-1,-2,-2,-1,-2,-2
278417320241,1,0,-2,0,1,0,1,-1
278417320241,0,-1,0,-2,-1,-1,-3,-2
278417321856,-1,-1,0,-2,0,-2,-1,1
278417321856,0,-1,-2,0,0,-1,0,-1
278417322702,0,0,-2,-1,1,1,1,0
278417322702,-1,-2,0,0,-2,0,-1,-1
278417326540,0,-1,-2,-2,-2,-4,-2,-2
278417326540,-2,-1,-1,-1,-1,-3,0,0
278417341421,-1,-3,0,-1,-2,-1,-1,0
278417341421,0,0,-3,1,-3,0,1,1
278417342948,-1,-1,0,0,-2,-3,-1,-1
278417342948,-1,-2,0,1,-1,-2,0,0
278417364494,-1,-1,-1,-1,-2,-1,-1,-1
278417364494,-1,-1,-2,0,0,0,-2,0
278417365912,0,-1,1,-2,-2,1,-1,0
278417365912,-3,-1,-2,-3,-1,-1,0,-1
278417386907,-1,-1,0,-2,3,-2,-1,-2
278417386907,-1,-1,0,-1,1,-1,-1,0
278417388472,0,0,-1,1,1,-2,0,-2
278417388472,0,0,0,-2,-2,-2,-1,0
278417392585,-2,1,-4,-2,-3,-1,-2,0
278417392585,-3,0,-1,0,0,0,-1,-1
278417401539,-2,-2,-2,0,-1,0,0,0
278417401539,0,0,0,0,0,3,-1,-1
278417416161,-2,0,-1,-2,0,-2,-2,-1
278417416161,0,0,0,-2,-3,-3,0,0
278417439620,0,-2,-2,0,0,-1,-2,-2
278417439620,1,-2,-2,0,-2,-4,-3,0
278417440371,1,-1,0,-1,-3,0,-1,-1
278417440371,-1,-1,-1,-1,-3,1,-2,-1
278417442021,-2,-1,0,-1,0,0,0,1
278417442021,-1,-1,-2,0,0,1,1,-1
278417452597,-2,1,-2,0,1,1,0,1
278417452597,-1,0,-2,-1,-2,-1,-1,-3
278417467595,0,0,-1,1,-2,0,0,-1
278417467595,0,1,-1,0,0,-2,-3,-1
278417475727,-1,0,-1,-2,1,-3,-1,0
278417475727,1,-1,0,0,2,0,-2,0
278417490164,-2,0,-2,-1,-2,0,-4,-1
278417490164,0,1,-2,-1,-2,0,-2,-2
278417514634,-1,-1,0,-1,-4,-2,0,-2
278417514634,-2,-2,1,0,0,1,0,-1
278417516194,0,-1,0,-2,1,0,-1,-1
278417516194,0,-2,-2,-2,0,-1,0,0
278417516915,0,-2,-1,0,-1,-2,-1,-2
278417516915,-2,0,-2,-1,-1,-1,0,0
278417521477,-1,0,0,-1,-2,-1,1,1
278417521477,-3,0,-1,-1,-1,0,-1,0
278417543890,-2,-1,-1,-1,1,0,-1,-1
278417543890,-2,-1,-3,-2,-1,-2,0,0
278417545532,-2,1,-1,0,-3,-2,-1,-1
278417545532,-1,0,0,-2,-2,0,0,-1
278417566407,-1,-1,-1,1,0,-1,-1,0
278417566407,-2,-1,0,-1,-2,-1,-1,-1
278417567978,0,-2,-2,-2,-1,-2,0,0
278417567978,0,-1,-1,-2,-2,-1,-2,0
278417572535,0,0,-1,-1,1,1,-1,-1
278417572535,0,-1,-2,1,2,1,0,-1
278417589000,-1,-1,0,0,-1,0,0,-1
278417589000,0,0,0,2,-1,-3,-2,-1
278417595829,-1,-3,-3,0,-1,-2,-2,-1
278417595829,0,-2,0,-1,-2,-4,-1,-2
278417602530,-1,-1,1,0,-3,1,1,0
278417602530,-1,-2,-2,-2,0,0,-1,0
278417619472,0,-1,-1,-2,-3,-1,0,0
278417619472,-2,0,-1,-2,-1,-1,-1,0
278417620939,0,-2,-1,0,-2,-2,-2,-2
278417620939,0,-1,-3,-3,-2,-1,0,-2
278417641476,-1,-2,0,-1,-2,-1,-2,-2
278417641476,2,-1,0,-1,0,0,0,0
278417643014,-1,0,-2,1,-1,1,0,-1
278417643014,-2,-2,-3,0,-1,-1,-2,-1
278417664667,-1,-2,-2,-1,-1,0,0,1
278417664667,0,0,-2,0,-2,-2,-1,-1
278417666165,-1,-1,-1,-2,1,2,-2,-1
278417666165,-1,-2,0,-1,-2,-1,0,-1
278417694508,-1,0,1,-2,-2,-3,-2,-1
278417694508,2,-1,-3,-3,-2,0,0,1
278417696163,-2,-2,-3,-1,1,-1,0,-2
278417696163,1,0,-1,-3,1,0,1,-2
278417697093,-2,-1,0,0,0,-1,-1,-1
278417697093,0,-1,0,0,1,-1,-1,0
278417717859,-1,-2,0,-2,1,-3,-1,-1
278417717859,-3,-1,-1,1,-1,0,0,1
278417718772,0,-1,-1,-1,-2,-2,1,-1
278417718772,-2,0,-1,-3,-2,-2,-1,-1
278417722591,0,-1,-1,-1,-2,-1,-1,-1
278417722591,-1,0,0,-1,-1,-1,-2,-1
278417739667,0,0,-2,-2,1,0,0,0
278417739667,-1,-2,0,0,-3,3,-1,-2
278417741138,0,-2,-2,-3,-1,-4,-3,1
278417741138,-1,-1,0,-2,-2,-2,-2,-1
278417752574,-1,-2,0,-1,0,0,-1,1
278417752574,-2,0,-2,-2,0,0,-1,0
278417768951,-1,-1,1,0,0,-1,-1,-1
278417768951,0,-1,-3,0,-2,0,-2,-2
278417791498,-3,-1,-1,-2,0,-1,-1,-2
278417791498,-1,-1,-2,0,-2,-1,-1,-1
278417793008,0,-2,-1,-1,-1,2,0,0
278417793008,1,-1,-1,1,2,1,2,-1
278417799025,0,-2,0,-2,-1,3,1,-1
278417799025,-2,-1,0,0,0,1,-1,0
278417800469,-2,-1,-1,1,0,-1,-2,-2
278417800469,-1,-1,-1,-1,-1,-3,-1,-1
278417821557,-1,-1,-2,0,-2,-1,-2,-2
278417821557,0,1,0,0,0,0,1,-1
278417822994,-1,1,-2,-2,-3,-1,-1,-2
278417822994,0,-2,0,-1,-5,-1,0,1
278417843836,1,-2,-1,-2,-2,-2,-2,-2
278417843836,-1,-1,-1,-1,-1,-2,-1,-1
278417845436,-1,0,-1,-1,0,-3,-2,0
278417845436,-1,1,0,-1,1,-1,-1,-2
278417860019,-1,-2,0,0,-1,1,-1,0
278417860019,-1,-1,-1,-1,-2,-3,0,0
278417861630,0,-1,-2,1,0,-1,-1,-1
278417861630,0,0,-2,-3,-2,1,-2,-2
278417872526,-1,-1,-1,1,-3,0,0,0
278417872526,3,-1,0,0,0,1,-1,-2
278417881537,-2,0,0,-1,-3,0,-2,-1
278417881537,-1,-1,-2,-2,-2,-3,-3,-1
278417896241,0,1,-4,1,-1,0,1,-1
278417896241,0,-2,-2,-2,1,-1,0,-2
278417919605,-1,-1,0,-2,-1,1,0,-1
278417919605,-2,-1,0,-2,-1,-2,-2,0
278417920408,-3,-1,-2,1,-1,-4,-3,-2
278417920408,-1,-2,-1,-1,-2,-1,0,-1
278417921973,-1,-1,-2,0,0,-1,1,0
278417921973,-1,-2,0,0,-2,-1,0,0
278417941360,0,0,0,-4,-3,-3,0,-2
278417941360,-1,1,-2,-1,0,-4,-2,0
278417943000,0,-1,-2,-1,-3,-2,-1,-1
278417943000,-1,0,0,-2,-1,2,0,0
278417955777,-1,-1,-1,-2,0,1,-2,-2
278417955777,-1,-1,0,-1,-3,1,-3,-1
278417970141,0,-1,-1,-2,0,-1,-1,0
278417970141,0,-1,-1,0,-1,0,0,-2
278417994742,-2,-2,-2,1,1,0,0,-1
278417994742,-2,0,-1,0,0,1,1,-1
278417996187,1,-1,-1,-1,-1,-3,0,-2
278417996187,-2,-1,-3,-1,1,-4,-2,-2
278417996975,-1,0,-1,-3,-1,-2,0,-1
278417996975,-2,-1,-2,1,0,0,0,-1
278418001487,-1,0,-1,0,-2,0,-2,-2
278418001487,0,-1,-1,-1,-3,-2,1,-2
278418024031,-1,0,1,-1,-2,0,0,0
278418024031,0,-1,0,-2,-1,0,-2,-1
278418025472,-2,0,0,-1,-2,-1,0,-1
278418025472,-1,-3,-2,-1,-2,0,-1,-1
278418046402,-1,0,0,0,1,-2,-3,-1
278418046402,-1,-1,0,-1,-2,-4,-1,0
278418047993,0,-1,-1,-1,0,0,0,-1
278418047993,-1,0,-1,0,0,-3,-2,0
278418068882,-1,0,-1,0,0,-1,-1,-2
278418068882,0,-2,1,-1,-2,0,-1,0
278418070450,-1,0,-2,-1,-1,0,-2,0
278418070450,-1,-1,-1,1,-1,0,-3,-1
278418075876,-1,-1,-1,2,-1,-1,-2,0
278418075876,-2,-3,-1,-1,1,-1,0,-1
278418082719,-2,-1,-2,-2,-2,1,-1,-1
278418082719,1,0,-1,-1,1,-2,1,-1
278418098839,0,-1,0,-1,-1,-2,1,-1
278418098839,0,0,-1,0,2,-1,0,0
278418105020,0,-1,0,-2,-2,0,0,0
278418105020,-2,0,0,-1,0,0,0,-1
278418112628,-1,0,-2,-2,-1,0,-2,-1
278418112628,-1,1,0,-1,-2,-1,-1,-2
278418121516,0,-1,0,2,1,0,0,-3
278418121516,1,0,-1,-2,-3,-2,-1,1
278418151479,-1,-3,-1,-2,-2,1,-1,0
278418151479,0,-2,-1,-1,-3,0,-1,-1
278418153017,0,0,-2,-2,0,-2,-4,0
278418153017,-2,-1,-1,-1,-1,2,-1,-1
278418158198,0,0,-2,-2,-2,-2,0,2
278418158198,0,-1,-3,-1,-2,0,-1,0
278418173192,-1,-3,-2,0,-2,-2,-1,-1
278418173192,0,0,0,-1,-1,1,0,-1
278418174005,-1,0,-1,0,0,2,1,-1
278418174005,0,1,-1,0,0,1,-1,-2
278418197890,0,-2,0,-1,-2,-1,-2,-2
278418197890,0,1,-1,-2,-3,-1,-2,-1
278418198718,0,-1,-3,-1,-1,-1,-1,-2
278418198718,-2,0,-1,-1,-1,-2,1,-1
278418202502,-1,1,-2,0,-2,1,0,0
278418202502,-1,-1,-1,-2,-1,-2,-2,1
278418218276,0,0,-1,-1,-2,-4,-3,-1
278418218276,-1,-2,0,-1,-2,-2,0,-1
278418225108,-1,-2,0,-1,-1,-1,1,-1
278418225108,-3,-2,-1,0,1,1,0,-1
278418232580,-2,-2,0,0,-2,-1,-1,-1
278418232580,-1,0,-2,-1,0,1,-2,0
278418249002,0,0,0,-1,-1,0,0,-1
278418249002,0,-2,-2,-2,-1,-1,-1,-1
278418271389,-2,-2,0,-2,1,0,0,-1
278418271389,0,-3,0,-2,-2,-1,-1,0
278418273072,0,-3,0,-1,-2,-1,1,-2
278418273072,-2,-1,-1,2,0,-3,1,-2
278418278301,1,0,-1,0,-3,-2,-3,0
278418278301,-2,0,0,-1,0,-1,0,1
278418285128,-2,0,-1,-1,1,3,-1,0
278418285128,-1,-1,0,-1,1,0,-2,-1
278418301364,0,-2,-1,-2,-2,0,0,-1
278418301364,0,-1,-1,-1,-2,-2,-1,-2
278418302972,-2,-1,-1,0,-2,-4,0,-1
278418302972,-1,-1,0,1,0,1,-1,0
278418324025,-1,1,-1,0,-1,-2,-2,-1
278418324025,0,-1,-3,-1,-3,-4,-2,-2
278418325477,-2,-1,0,-1,1,0,-1,0
278418325477,-1,-2,-2,-2,-2,-1,0,-1
278418346502,-2,-2,0,-2,0,0,-2,1
278418346502,-2,0,-1,-1,-2,-1,-1,0
278418348048,-1,1,-3,1,-2,-4,-2,-2
278418348048,-1,-1,0,-1,-1,-3,0,-1
278418361507,-1,-2,-2,-1,-2,0,0,-2
278418361507,-1,-1,0,0,1,0,0,0
278418362949,-2,-1,-1,-1,0,0,0,1
278418362949,0,-1,-1,-2,-2,0,-1,0
278418375468,1,-1,0,0,-1,0,-1,-2
278418375468,0,-1,-1,-2,0,1,0,-1
278418383975,-1,-2,-1,-1,-2,2,-2,-2
278418383975,-1,-1,-1,-1,-2,0,-1,0
278418398350,-1,-3,-1,-1,1,0,-1,-1
278418398350,0,-1,0,1,0,0,-3,-2
278418422207,-1,0,0,-1,1,-1,0,-1
278418422207,-2,-1,-1,-2,-2,-2,0,-1
278418422862,-1,-1,-2,0,0,-3,-1,-1
278418422862,0,0,-1,-1,-3,-2,0,-1
278418424446,0,0,0,-1,0,0,-1,0
278418424446,-1,-2,-1,1,0,-2,-2,0
278418435030,-1,0,-1,0,-2,-1,0,-1
278418435030,-1,-2,0,-1,1,0,0,-2
278418451534,-2,-1,-1,-3,-1,-2,0,-2
278418451534,0,-1,-2,-3,-3,-3,-2,-2
278418474043,-2,0,-2,-2,-3,-1,0,0
278418474043,-2,-1,-2,0,0,0,0,-1
278418475497,0,-3,-1,-1,-1,1,0,0
278418475497,0,0,-1,-1,3,1,0,-2
278418482190,0,-1,-1,-1,-2,0,0,-1
278418482190,-1,-1,-1,-1,-2,-1,-1,0
278418483684,-1,0,1,-1,0,-2,-1,-1
278418483684,0,0,-3,-1,-2,-3,-2,-1
278418495618,-2,1,-1,1,-1,-1,-1,1
278418495618,0,-2,-1,0,0,1,-1,0
278418503982,-1,-2,-2,-2,1,-3,-1,1
278418503982,-2,-3,0,-1,-1,0,-1,-1
278418526307,-2,-1,0,-1,-2,-1,0,-1
278418526307,0,-1,0,1,-2,0,-1,0
278418527951,0,-1,0,0,-1,-2,-1,0
278418527951,0,0,0,-1,-1,0,-1,-2
278418549741,-1,-1,-3,1,0,-4,0,0
278418549741,-1,0,-1,-3,-3,-5,-2,-1
278418555740,0,0,0,-2,-2,-1,-2,-3
278418555740,-1,-2,-1,0,-2,-1,1,0
278418556477,-2,-2,-1,-1,1,2,-1,-1
278418556477,-2,-1,-1,-1,-1,-1,-2,-1
278418564056,0,0,-1,-2,-3,-1,-1,-1
278418564056,1,0,-1,-1,-1,1,0,0
