timestamp,x,y,z
1535040498582479,0,0.3125,0.125
1535040498605465,0.0625,0.5,0.0625
1535040498620460,0.125,0.625,-0.25
1535040498644453,-0.4375,0.5,-0.3125
1535040498681496,-1.0625,0.8125,-0.25
1535040498684430,-0.5,0.875,-0.1875
1535040498703408,0,0.375,0
1535040498725470,-0.125,0.3125,0.1875
1535040498781483,0.5625,0.5,0.6875
1535040498783381,0.4375,0.5625,0.875
1535040498788366,0.1875,0.375,0.5625
1535040498801424,0.375,0.4375,0.625
1535040498826374,-0.5,0.1875,0.6875
1535040498861356,-1.1875,-0.0625,0.5625
1535040498883417,-0.625,0,0.375
1535040498884320,-0.3125,0.3125,0.1875
1535040498906293,-0.4375,0.375,0
1535040498921283,-0.875,0.625,0.125
1535040498944273,-0.625,0.6875,0.0625
1535040498966283,-0.4375,0.375,0.0625
1535040498983264,0.25,0.125,0.25
1535040499005235,0.4375,-0.0625,0.4375
1535040499028223,0.3125,0,0.625
1535040499043216,-0.3125,0.1875,0.4375
1535040499065200,-0.8125,0.375,0.4375
1535040499086256,-1.1875,0.5625,-0.1875
1535040499108192,-1.375,0.3125,-0.4375
1535040499125176,-0.875,0.375,-0.5625
1535040499147157,-1.1875,0.375,-0.8125
1535040499170141,-1.875,0.4375,-0.875
1535040499185135,-2,0.375,-0.5
1535040499207119,-0.9375,0.625,-0.125
1535040499236104,-0.0625,0.75,0.0625
1535040499245114,0.625,0.8125,0.25
1535040499267086,0.9375,0.75,0.75
1535040499288075,0.0625,0.8125,0.9375
1535040499305079,-0.9375,1.1875,0.75
1535040499335049,-0.8125,1.0625,0.5
1535040499348157,-0.375,0.875,-0.0625
1535040499365032,-0.25,0.4375,-0.25
1535040499387016,-0.875,0.75,-0.375
1535040499408021,-1.1875,0.75,-0.4375
1535040499425011,-0.9375,0.5,-0.4375
1535040499446983,-0.375,0.375,-0.0625
1535040499461991,-0.5625,0.375,-0.125
1535040499484961,-0.5625,0.5,0.1875
1535040499514959,-0.375,0.375,0.0625
1535040499528012,-0.4375,0.3125,0.375
1535040499544929,-0.3125,0.375,0.3125
1535040499566913,-0.375,0.5625,0.3125
1535040499587902,-0.125,0.3125,0.25
1535040499604892,-0.5625,0.25,0.375
1535040499626878,-1.0625,0.3125,0.1875
1535040499647870,-0.3125,0.5625,0.1875
1535040499664858,0,0.4375,0.1875
1535040499686844,-0.625,0.4375,-0.25
1535040499707849,-0.9375,0.4375,-0.375
1535040499724823,-0.625,0.4375,-0.25
1535040499747814,-0.5625,0.625,-0.4375
1535040499767807,0,0.5,-0.375
1535040499784789,-0.3125,0.375,-0.25
1535040499806776,-0.625,0.375,-0.125
1535040499828763,-1.25,0.4375,0.1875
1535040499844755,-0.5625,0.3125,0.5
1535040499866742,-0.625,0.1875,0.4375
1535040499889728,0.0625,0.0625,0.4375
1535040499911717,0.25,0.375,0.75
1535040499926707,0,0.25,0.6875
1535040499949695,-0.4375,0.375,0.3125
1535040499972681,-0.625,0.375,0.375
1535040499986673,-1.0625,0.375,-0.0625
1535040500009660,-0.4375,0.375,-0.5
1535040500032646,-0.4375,0.375,-0.375
1535040500054634,-0.8125,0.375,-0.4375
1535040500069627,-0.9375,0.5625,-0.1875
1535040500092614,-0.5625,0.5,0.0625
1535040500113601,-0.5625,0.5625,0.4375
1535040500130591,-0.3125,0.375,0.625
1535040500152579,0.0625,0.5625,0.6875
1535040500173567,0.0625,0.625,0.5625
1535040500189557,-0.0625,0.875,0.5
1535040500212546,-0.125,0.625,0.4375
1535040500240528,-0.625,0.6875,0.25
1535040500251524,-0.5625,0.6875,0.0625
1535040500272510,-0.8125,0.9375,0.125
1535040500293498,-0.625,0.875,-0.125
1535040500309489,-0.4375,0.75,0
1535040500332476,-0.125,0.6875,0.3125
1535040500353463,-0.125,0.5625,0.3125
1535040500369454,-0.25,0.5625,0.625
1535040500392442,0,0.5625,0.6875
1535040500413429,-0.3125,0.5625,0.6875
1535040500435462,-0.0625,0.375,0.6875
1535040500452409,-0.3125,0.5,0.6875
1535040500473395,-0.125,0.5625,0.625
1535040500489439,-0.1875,0.75,0.375
1535040500512373,-0.4375,0.5,0.1875
1535040500541357,-0.4375,0.5625,0.125
1535040500549382,-0.4375,0.875,0.3125
1535040500572341,-1.25,1.6875,0.5
1535040500594324,-3.5,2,2.0625
1535040500609328,2,0.125,0.6875
1535040500632304,3.1875,-3.0625,1.375
1535040500654291,1.6875,-3.4375,2.3125
1535040500669298,1.875,-2.4375,0.1875
1535040500692271,0.8125,-5.6875,0.8125
1535040500714259,-4.4375,-3.3125,0.9375
1535040500729249,-1.3125,-3.8125,-0.1875
1535040500752235,9.625,-7.4375,-1.625
1535040500775226,13.4375,-9.8125,-1.3125
1535040500789213,5.5625,-9.75,-2.4375
1535040500812200,-4.6875,-8.375,-4.1875
1535040500835187,-10.5625,-8.875,-2.6875
1535040500849179,-7.625,-8.0625,-1.875
1535040500872165,5.0625,-9,-2.0625
1535040500895152,18.125,-11.1875,-1.9375
1535040500916175,24.0625,-15,-0.1875
1535040500932131,12.625,-13.25,0.3125
1535040500955118,-3.0625,-10,-0.625
1535040500976214,-8.75,-8.3125,1.0625
1535040500992097,-8.875,-5.5,-3.0625
1535040501015087,2.5,-4.1875,0.4375
1535040501029092,-9.125,-0.3125,-0.5625
1535040501052065,-17.3125,-1.0625,0.8125
1535040501075053,-24.8125,3.4375,-2.5
1535040501096155,-22.1875,-0.4375,-2.8125
1535040501112028,-26.4375,0.4375,-0.625
1535040501136021,-12.875,0.375,-4.375
1535040501156120,-1.5,4.0625,-4.25
1535040501180005,2.3125,4.1875,-4.5625
1535040501194982,-0.3125,2.9375,-4.875
1535040501216044,-7.375,1.5625,-3.6875
1535040501231959,-1.375,0.75,-3.125
1535040501254949,-1.25,0.5,-2.875
1535040501275934,1.375,0.9375,-2.25
1535040501291925,1.3125,2.0625,-2
1535040501314915,2.875,0.5,-2
1535040501335933,-1.5,0.375,-0.6875
1535040501359890,-2.8125,-0.125,0.375
1535040501374881,-6.5,0.0625,0.0625
1535040501395940,-8.1875,0.4375,0.1875
1535040501411888,-6.125,2.125,1
1535040501434846,-4.5625,-0.125,0.9375
1535040501455944,-3.875,-0.5625,0.5
1535040501471930,-0.3125,1.4375,0.4375
1535040501494826,0.5,0.25,0.5
1535040501516870,-5.9375,0,-0.9375
1535040501531859,-5.125,-1.8125,-1.25
1535040501554778,-4.3125,-0.625,-1
1535040501576835,-1.125,-1.125,-0.1875
1535040501598798,-0.3125,-1.25,0.6875
1535040501614743,-0.25,-1.125,1.25
1535040501636804,-0.5,-1.125,1.875
1535040501651721,0.0625,0.1875,3.125
1535040501674706,0.1875,-0.625,3.4375
1535040501696769,2.5,-2,3
1535040501711688,-2.9375,-1.3125,2.5
1535040501734676,-5.75,-0.25,2.5
1535040501757659,1.3125,-0.875,-0.375
1535040501771653,-0.75,1.0625,0.125
1535040501794695,-0.625,1.1875,-1.375
1535040501817627,-4.125,-1.25,0.125
1535040501831619,-7.125,0.6875,0.6875
1535040501854605,-6.5625,0.625,2.1875
1535040501877592,-4.0625,0.25,0.375
1535040501891582,-2.0625,-1.75,0.1875
1535040501914580,-3.75,-1.0625,0.3125
1535040501944553,-2,-0.375,1.3125
1535040501951551,2.5625,-0.6875,0.6875
1535040501974534,1.5625,-2.25,1.1875
1535040501997525,-3.4375,-1.125,0.6875
1535040502018622,-2.125,0.1875,1.5625
1535040502034515,4.75,0.3125,0.9375
1535040502057503,-0.625,-1.125,0.5625
1535040502078549,-2.9375,-0.875,0.8125
1535040502094465,-3.25,0,0.8125
1535040502117455,-2.25,1.125,0.1875
1535040502138456,3.0625,0,0.25
1535040502154431,3.25,-1.25,0.125
1535040502177435,-0.0625,-2.375,0.6875
1535040502198527,-3.125,-0.6875,2.8125
1535040502214452,-1.8125,-1.4375,2.6875
1535040502237386,-1,-2.125,2.875
1535040502258491,-3.3125,-3.125,1.75
1535040502274428,-4.25,-1.4375,2.625
1535040502297353,-1.8125,-0.4375,1.5625
1535040502318451,-0.75,1,1
1535040502334328,0.25,-0.4375,-0.875
1535040502357317,-2.4375,0.4375,0.125
1535040502378378,-2.9375,1.5,-1
1535040502394366,-0.375,0.3125,-1.875
1535040502417283,4.8125,1,-1.25
1535040502439375,0.9375,0.875,-0.4375
1535040502454333,-1.5,1.5625,0.5625
1535040502477263,-5.3125,-0.1875,2.1875
1535040502499308,-0.6875,0.0625,1.875
1535040502514301,1.4375,-1.5,3.25
1535040502537212,0.125,0,2.3125
1535040502559320,2.0625,-0.375,1.875
1535040502574263,0.625,-0.6875,1.75
1535040502597177,-3.125,0.5,2.125
1535040502626167,-2.25,0.4375,0.8125
1535040502634157,3.625,-1.375,-1.0625
1535040502657143,0.9375,0.125,-1.6875
1535040502680131,-4.8125,0.6875,-0.0625
1535040502710117,-7,-0.125,-0.125
1535040502717110,-8.125,-3,0.3125
1535040502740097,-9.5,-1.75,0.25
1535040502762085,-11.5625,1.4375,2.125
1535040502777076,-6.0625,-0.375,3.4375
1535040502800065,-9.75,-2.1875,4.0625
1535040502814054,-17.4375,-4.875,3.5
1535040502837041,-14.1875,-2.125,4.5
1535040502860031,-1.5,-2.5625,3.5
1535040502874022,-6.25,-3.9375,5.375
1535040502897008,-18.875,-4.5,6.1875
1535040502919993,-26.75,-0.5,8.3125
1535040502941056,-9.6875,-0.25,5
1535040502956973,5.3125,-2.1875,2.3125
1535040502979962,-0.25,-2,-0.1875
1535040503001019,-10.4375,1.4375,-1.0625
1535040503024936,-2.9375,4.8125,-1.375
1535040503039927,13.5,3.5625,-4.375
1535040503061030,6.875,-0.125,-1.75
1535040503076961,-11.125,3.125,1.25
1535040503099890,-27.5,7.625,6.375
1535040503121951,-4.75,4.875,2.875
1535040503136885,11.3125,-1.5625,0.3125
1535040503159859,17.1875,0,0.4375
1535040503180956,-2.25,4.0625,1.9375
1535040503196872,-17.6875,3.9375,3.4375
1535040503226861,-12.9375,-5.6875,-1.0625
1535040503240924,-1.4375,-13.25,2.1875
1535040503256874,-35.8125,9.25,9.3125
1535040503279790,-6.6875,4.8125,5.5
1535040503300850,11.8125,0.75,-0.125
1535040503316769,8.5625,-1.0625,-0.5
1535040503339753,-1.6875,-0.625,-0.875
1535040503360854,-0.375,-1.4375,-0.5
1535040503376844,4.6875,-2.3125,1.25
1535040503399718,4.5,-5.4375,0
1535040503422708,-15.375,0.1875,4.3125
1535040503436714,-22.25,7.4375,1.8125
1535040503459687,-0.125,5.4375,2.0625
1535040503482671,4.6875,-0.25,-2.9375
1535040503496666,-5.6875,-1.0625,-1.9375
1535040503519651,-11.125,0.5625,-1.25
1535040503542635,-12.4375,6.75,-2.8125
1535040503556631,0.375,5.125,-3.5625
1535040503579616,1.8125,0.3125,-5.625
1535040503602606,-6.9375,-0.875,-0.875
1535040503616610,-15.0625,2.125,0.1875
1535040503639583,-5.125,2.3125,-0.25
1535040503662568,0.8125,1.6875,-2.0625
1535040503676562,1.3125,0.375,-3.9375
1535040503699546,-4,0.75,-4.125
1535040503722536,-5.4375,2.1875,-4.875
1535040503736544,0.125,-1.625,-3.5
1535040503765622,-1.75,-2.875,-2.6875
1535040503782502,-6.4375,-0.5625,2
1535040503796490,-7.4375,2.125,3.4375
1535040503819479,-0.3125,1.625,0.8125
1535040503842468,-2.4375,3.375,-4.0625
1535040503856459,-8.8125,4.8125,-5.625
1535040503879444,-6.9375,3,-3.75
1535040503902447,-6.75,0,-2.8125
1535040503923532,-14.0625,0.5625,0.25
1535040503947421,-6.375,3.8125,2.875
1535040503962397,-0.3125,9.875,0.3125
1535040503983456,2.5,3,2.8125
1535040503999375,-11.9375,-4.9375,6
1535040504022377,-19.1875,-3.125,7.125
1535040504044413,2.0625,1.0625,7.625
1535040504059380,17.5,-0.6875,6.1875
1535040504082396,8.625,-0.1875,3.0625
1535040504103434,1,-3.25,-0.625
1535040504119419,1.6875,-2.8125,0.625
1535040504149353,2.125,-1.75,2.1875
1535040504164393,1.8125,-0.8125,3.5
1535040504179380,3.9375,-0.375,4
1535040504202261,0,1.625,3.375
1535040504224356,-9,3,1
1535040504239350,-12.125,1.8125,-3.625
1535040504262225,-8.5625,0.25,-5.125
1535040504284287,-6.5625,0.625,-2.375
1535040504299279,-5.375,2.5,-1.1875
1535040504322192,-1.3125,3.625,0.375
1535040504352174,0.9375,2.75,0.1875
1535040504360169,7.5,3.8125,-1.5625
1535040504382171,7.5625,3.25,-0.125
1535040504405142,0.875,4.625,0.5625
1535040504419138,-5.1875,9.375,1.1875
1535040504442122,-9.125,12.0625,0.4375
1535040504472107,-14.5,10.4375,1.9375
1535040504479102,-6.875,6.625,5.5
1535040504502088,-16.625,8.4375,5.3125
1535040504525077,-32,3.5625,6.5625
1535040504539066,-31.25,2.1875,2.9375
1535040504562052,-6.0625,7.0625,3.3125
1535040504585043,13.75,8.5625,3.5625
1535040504606142,17.25,6.4375,4.1875
1535040504622019,-1.9375,1.875,0.875
1535040504645021,-20.125,1.0625,-0.875
1535040504666061,-3.125,0.3125,-2.4375
1535040504681985,20.125,-2.1875,1.625
1535040504704974,24.75,6.1875,14.5
1535040504726035,24.9375,11.5625,8.9375
1535040504741949,14.6875,11.9375,10
1535040504764939,13.4375,14.5625,10.375
1535040504786042,-12.125,17,3.5625
1535040504801946,8.125,15.8125,-11.625
1535040504824905,12.8125,4.9375,-12.8125
1535040504846008,7.5625,-9.4375,-8.875
1535040504861885,-10.75,-6.375,-10.75
1535040504884871,-18.125,-5.375,-7.1875
1535040504905858,-19.9375,-4.25,0.5
1535040504921846,-12.25,-2.75,-0.0625
1535040504944833,5.25,-0.875,2.25
1535040504968822,18.4375,3.875,1.5
1535040504982815,22.4375,7.375,-1.5
1535040505004801,20.0625,10.375,-5.875
1535040505025906,13.75,10.75,-8.0625
1535040505049776,6,10.5625,-5.4375
1535040505064768,-0.6875,10.3125,-4.5
1535040505085871,-0.1875,9.4375,-4.0625
1535040505101818,10.3125,8.625,-9.4375
1535040505124733,15.75,6.8125,-10.625
1535040505161784,11.3125,8.5625,-11.5
1535040505168735,6.3125,10,-13.8125
1535040505184804,3.0625,8.75,-13.8125
1535040505205798,-1.75,7.8125,-10.875
1535040505222674,-4.8125,8.1875,-12.125
1535040505244662,0.8125,7.0625,-13.125
1535040505265762,5.875,4.3125,-12.0625
1535040505282639,6.25,3.0625,-11.375
1535040505287636,4.8125,3,-10.5625
1535040505310627,-1,2.5,-8.1875
1535040505332729,-4.5,2.0625,-6.875
1535040505347716,-5.5,1.5625,-5.4375
1535040505369590,-4.5625,0.8125,-3.375
1535040505392652,-1,0.75,-2.3125
1535040505407644,-0.1875,0.5625,-1.0625
1535040505430603,0.0625,0.4375,-1.0625
1535040505452579,-1.6875,-0.4375,0.4375
1535040505467649,-3.5625,0.0625,1.5625
1535040505490546,-3.875,-0.0625,1.75
1535040505512583,-3.3125,-0.8125,2
1535040505527612,-3.6875,-1.1875,1.9375
1535040505550566,-2.5625,-0.5625,2.125
1535040505580583,-0.25,0.1875,0.6875
1535040505589464,-0.0625,-0.375,0.1875
1535040505610526,1.6875,-0.75,0.25
1535040505632512,2,-1,0.75
1535040505649433,-0.8125,-0.375,0.3125
1535040505670493,-0.6875,-0.5,0.3125
1535040505692524,-1.4375,-1.1875,0.8125
1535040505709399,-1.0625,-2.0625,0.8125
1535040505730493,0.75,-0.75,0
1535040505752490,2.625,-1.25,0.1875
1535040505769365,1.5625,-1.1875,-0.125
1535040505793366,1.375,-0.875,0.75
1535040505812450,1.25,-0.4375,-0.1875
1535040505829330,0.375,-0.5,-0.375
1535040505850316,-1.0625,-1.125,0.0625
1535040505872377,-3.5,-1.0625,-0.375
1535040505896288,-5.25,-0.6875,-1.125
1535040505910395,-5.5,-0.3125,-1
1535040505934283,-3.25,0.375,-1.125
1535040505949260,-1.3125,0.375,-1.9375
1535040505970360,-0.375,0.375,-1.5625
1535040505992351,-0.9375,0.5,-0.875
1535040506009240,-1.25,1.6875,-0.9375
1535040506030326,-0.1875,2.1875,-0.5625
1535040506052201,-0.5625,2.5625,-0.25
1535040506069190,-0.8125,2.0625,-1.25
1535040506090253,-1.125,2.25,-0.75
1535040506113166,-1.6875,2.5625,-1.5
1535040506129158,-1.875,2,-0.3125
1535040506150253,-0.5625,2.125,-1.625
1535040506173183,0.3125,1.4375,-1.1875
1535040506190120,-0.1875,1.875,-1.125
1535040506210224,-1.1875,1.375,-1.75
1535040506233104,-1.8125,1.25,-1.5625
1535040506250085,-1.875,1.0625,-2
1535040506270192,-0.625,0.625,-1.25
1535040506293060,-0.125,0.8125,-1.4375
1535040506310055,0.25,0.25,-1.25
1535040506330155,0,-0.3125,0
1535040506353047,-1,0,0
1535040506370020,-1.4375,-0.125,0.375
1535040506390081,-0.75,-0.0625,0.75
1535040506413060,-0.125,-0.6875,0.8125
1535040506430983,-0.9375,-0.125,0.3125
1535040506450044,-0.5,0,-0.4375
1535040506473075,-0.875,-0.0625,-0.4375
1535040506490947,-1,0.25,-1.3125
1535040506510055,-0.9375,0.8125,-1.625
1535040506533032,-1.4375,0.75,-1.5
1535040506550913,-2.25,0.75,-1.0625
1535040506570019,-1.5,1.125,-1.125
1535040506593002,-0.875,0.875,-0.125
1535040506610882,0.25,1.3125,-0.25
1535040506629868,0.8125,0.75,0.75
1535040506652976,0.5,0.875,1
1535040506670846,0.0625,0.5625,1.8125
1535040506689949,-0.125,1.1875,1.9375
1535040506712894,0.625,1.0625,1.5625
1535040506734881,0.9375,0.9375,1.5
1535040506749873,1.1875,0.75,1.0625
