timestamp,x,y,z,w
278599175390,-0.576782,0.140137,-0.125366,0.794983
278599183618,-0.576782,0.140137,-0.125366,0.794922
278599199003,-0.576843,0.140137,-0.125366,0.794922
278599227845,-0.576843,0.140137,-0.125366,0.794922
278599251202,-0.576843,0.140137,-0.125427,0.794922
278599257502,-0.576843,0.140076,-0.125427,0.794922
278599296090,-0.576843,0.140076,-0.125427,0.794922
278599311052,-0.576843,0.140076,-0.125427,0.794922
278599334024,-0.576843,0.140076,-0.125427,0.794922
278599348655,-0.576843,0.140076,-0.125427,0.794922
278599371698,-0.576843,0.140076,-0.125427,0.794922
278599377990,-0.576843,0.140076,-0.125427,0.794922
278599417285,-0.576843,0.140076,-0.125427,0.794922
278599422982,-0.576904,0.140076,-0.125427,0.794861
278599437405,-0.576904,0.140076,-0.125427,0.794861
278599475384,-0.576843,0.140015,-0.125427,0.794922
278599491628,-0.576904,0.140015,-0.125488,0.794861
278599507394,-0.576904,0.140015,-0.125488,0.794861
278599529908,-0.576904,0.140015,-0.125488,0.794861
278599542780,-0.576965,0.140015,-0.125488,0.794861
278599573493,-0.576965,0.139954,-0.125488,0.794861
278599579619,-0.576965,0.139954,-0.125488,0.794861
278599610412,-0.576965,0.139954,-0.125488,0.7948
278599626767,-0.576965,0.139954,-0.125549,0.7948
278599648012,-0.576965,0.139954,-0.125549,0.7948
278599664418,-0.577026,0.139893,-0.125549,0.7948
278599687854,-0.577026,0.139893,-0.125549,0.7948
278599699650,-0.577026,0.139893,-0.125549,0.7948
278599732036,-0.577026,0.139893,-0.12561,0.7948
278599746850,-0.577087,0.139893,-0.12561,0.794739
278599767902,-0.577087,0.139832,-0.12561,0.794739
278599785021,-0.577087,0.139832,-0.12561,0.794739
278599806863,-0.577087,0.139832,-0.12561,0.794739
278599819829,-0.577087,0.139771,-0.12561,0.794739
278599851834,-0.577087,0.139771,-0.125671,0.794739
278599866781,-0.577148,0.139771,-0.125671,0.794739
278599887876,-0.577148,0.139771,-0.125671,0.794739
278599904238,-0.577148,0.139771,-0.125671,0.794739
278599928243,-0.577148,0.139771,-0.125671,0.794739
278599941222,-0.577148,0.139771,-0.125671,0.794739
278599980563,-0.577148,0.139771,-0.125671,0.794678
278599988241,-0.577148,0.139771,-0.125671,0.794678
278600009254,-0.577209,0.139771,-0.125671,0.794678
278600022178,-0.577148,0.139709,-0.125671,0.794678
278600046714,-0.577148,0.139709,-0.125671,0.794678
278600061064,-0.577148,0.139709,-0.125671,0.794678
278600084294,-0.577209,0.139709,-0.125671,0.794678
278600105467,-0.577209,0.139709,-0.125732,0.794678
278600129375,-0.577209,0.139709,-0.125732,0.794678
278600143585,-0.577209,0.139709,-0.125732,0.794678
278600168206,-0.577209,0.139648,-0.125732,0.794678
278600181114,-0.577209,0.139648,-0.125732,0.794678
278600219922,-0.577087,0.139954,-0.125916,0.794678
278600225448,-0.577332,0.140442,-0.126038,0.794373
278600247844,-0.577393,0.14093,-0.126526,0.794189
278600262060,-0.577576,0.141541,-0.127319,0.793823
278600288418,-0.577637,0.142273,-0.127869,0.793518
278600301055,-0.577393,0.142883,-0.128601,0.793518
278600323531,-0.577576,0.143494,-0.129395,0.793152
278600345290,-0.577576,0.144104,-0.130188,0.792908
278600361555,-0.577271,0.144287,-0.130859,0.792969
278600383617,-0.577148,0.144226,-0.131287,0.79303
278600408212,-0.576843,0.143799,-0.131165,0.793335
278600421094,-0.57605,0.142639,-0.130554,0.794189
278600445094,-0.575562,0.141418,-0.130615,0.7948
278600481755,-0.576172,0.141296,-0.130676,0.794312
278600484227,-0.577148,0.141113,-0.131042,0.793579
278600503808,-0.578186,0.140991,-0.13208,0.792664
278600524796,-0.579041,0.140808,-0.133423,0.79187
278600542558,-0.579224,0.140808,-0.134033,0.791626
278600565510,-0.578308,0.140076,-0.13446,0.792358
278600601688,-0.577881,0.139648,-0.133911,0.792847
278600604132,-0.577087,0.138916,-0.133545,0.79364
278600625225,-0.577332,0.137878,-0.134033,0.793518
278600644656,-0.577942,0.137268,-0.134644,0.793091
278600661284,-0.578125,0.13678,-0.134888,0.79303
278600685569,-0.577759,0.136169,-0.134827,0.793396
278600721682,-0.577087,0.135925,-0.134216,0.794006
278600724096,-0.576111,0.135559,-0.133667,0.794861
278600745086,-0.574951,0.135315,-0.133484,0.795776
278600773332,-0.573792,0.135254,-0.133484,0.796631
278600795080,-0.572693,0.135437,-0.133728,0.797363
278600805179,-0.57074,0.135925,-0.13385,0.798645
278600842995,-0.568298,0.13623,-0.133484,0.800415
278600856777,-0.565674,0.136719,-0.13324,0.802185
278600862241,-0.563354,0.137512,-0.132996,0.803772
278600894091,-0.561829,0.138123,-0.133301,0.804626
278600902568,-0.561584,0.139099,-0.134277,0.804504
278600931846,-0.562073,0.140625,-0.135376,0.803711
278600961736,-0.563354,0.142273,-0.136292,0.802368
278600964128,-0.565491,0.143677,-0.136963,0.800476
278601000119,-0.568359,0.144531,-0.137695,0.798218
278601021794,-0.570679,0.145325,-0.138245,0.796326
278601024222,-0.572754,0.145935,-0.138245,0.794678
278601042158,-0.574707,0.145874,-0.137939,0.793335
278601072977,-0.575623,0.145691,-0.13739,0.792786
278601081141,-0.575928,0.145508,-0.136536,0.792786
278601120031,-0.575989,0.145264,-0.135498,0.792908
278601133196,-0.575989,0.144653,-0.134399,0.793274
278601143191,-0.575928,0.144043,-0.13324,0.793579
278601180619,-0.575928,0.143616,-0.132202,0.793823
278601201462,-0.57605,0.14325,-0.131287,0.793945
278601208546,-0.575989,0.142883,-0.130432,0.794189
278601239841,-0.576111,0.1427,-0.129883,0.79425
278601244582,-0.57605,0.142517,-0.129395,0.794434
278601275443,-0.575867,0.142273,-0.129089,0.794678
278601291140,-0.57605,0.142273,-0.128906,0.794495
278601313017,-0.576599,0.142395,-0.128845,0.794128
278601321252,-0.576965,0.142517,-0.128967,0.793823
278601359874,-0.576965,0.142517,-0.128967,0.793823
278601364583,-0.576965,0.142578,-0.12915,0.793762
278601396824,-0.576965,0.142822,-0.129333,0.793701
278601409634,-0.577087,0.143066,-0.129517,0.793579
278601432822,-0.577271,0.143127,-0.129578,0.793396
278601448495,-0.577454,0.14325,-0.129822,0.793213
278601479484,-0.577393,0.14325,-0.129822,0.793213
278601486112,-0.577393,0.143188,-0.129822,0.793274
278601516733,-0.577393,0.143188,-0.129822,0.793274
278601531109,-0.577393,0.143188,-0.129822,0.793274
278601555809,-0.577393,0.143188,-0.129822,0.793274
278601568589,-0.577393,0.143188,-0.129822,0.793274
278601591095,-0.577393,0.143188,-0.129822,0.793274
278601607625,-0.577393,0.143188,-0.129822,0.793274
278601635304,-0.577271,0.143066,-0.129883,0.793396
278601643523,-0.577271,0.143066,-0.129883,0.793335
278601675859,-0.577271,0.143066,-0.129883,0.793396
278601688711,-0.577271,0.143066,-0.129883,0.793396
278601711218,-0.577271,0.143066,-0.129883,0.793396
278601726060,-0.577271,0.143066,-0.129883,0.793335
278601748593,-0.577271,0.143066,-0.129883,0.793396
278601765883,-0.577271,0.143066,-0.129883,0.793335
278601795880,-0.577271,0.143066,-0.129883,0.793335
278601807109,-0.577271,0.143066,-0.129883,0.793335
278601831006,-0.577271,0.143066,-0.129883,0.793335
278601847664,-0.577271,0.143005,-0.129883,0.793335
278601868620,-0.577271,0.143066,-0.129883,0.793335
278601885157,-0.577332,0.143005,-0.129883,0.793335
278601912926,-0.577271,0.143005,-0.129883,0.793335
278601928533,-0.577271,0.143005,-0.129883,0.793335
278601952649,-0.577271,0.143005,-0.129944,0.793335
278601974223,-0.577271,0.143005,-0.129883,0.793335
278601988503,-0.577271,0.143005,-0.129883,0.793335
278602005639,-0.577271,0.143005,-0.129883,0.793335
278602027580,-0.577271,0.143005,-0.129883,0.793335
278602042534,-0.577271,0.143066,-0.129883,0.793335
278602072665,-0.577271,0.143066,-0.129883,0.793335
278602087511,-0.577271,0.143066,-0.129883,0.793335
278602110176,-0.577271,0.143066,-0.129883,0.793335
278602125031,-0.577271,0.143066,-0.129883,0.793335
278602147512,-0.577332,0.143066,-0.129883,0.793335
278602167088,-0.577332,0.143066,-0.129883,0.793335
278602191122,-0.577271,0.143066,-0.129883,0.793335
278602207481,-0.577148,0.143372,-0.130005,0.793396
278602230056,-0.576965,0.143616,-0.130066,0.793457
278602245015,-0.576904,0.14386,-0.130188,0.793457
278602267981,-0.576904,0.14386,-0.130188,0.793457
278602303360,-0.576904,0.143799,-0.130493,0.793396
278602313149,-0.576904,0.144104,-0.131104,0.793213
278602326293,-0.576904,0.144836,-0.131836,0.792969
278602350474,-0.577148,0.145996,-0.132629,0.79248
278602365141,-0.577515,0.146851,-0.133362,0.791931
278602387987,-0.57782,0.147095,-0.134155,0.791504
278602410452,-0.577698,0.147461,-0.134888,0.791382
278602448993,-0.577454,0.147644,-0.135376,0.791443
278602462383,-0.577393,0.148132,-0.135925,0.791321
278602467185,-0.577576,0.148743,-0.136353,0.791016
278602485045,-0.577942,0.148926,-0.136414,0.790649
278602508133,-0.578125,0.148804,-0.136597,0.790527
278602528606,-0.577637,0.14917,-0.136536,0.790833
278602545227,-0.577515,0.149536,-0.136597,0.790833
278602567484,-0.577454,0.150085,-0.136536,0.790771
278602604314,-0.577515,0.150208,-0.13678,0.79071
278602606575,-0.57782,0.150146,-0.13739,0.790344
278602627998,-0.577942,0.149719,-0.137146,0.790405
278602664302,-0.577209,0.148865,-0.136597,0.791199
278602666736,-0.576355,0.147766,-0.136353,0.792053
278602688890,-0.575806,0.146667,-0.136353,0.792664
278602716582,-0.575256,0.14563,-0.136841,0.793152
278602725021,-0.574951,0.144531,-0.138,0.793396
278602746212,-0.574524,0.14386,-0.138611,0.793701
278602784337,-0.574646,0.142761,-0.138733,0.793823
278602786572,-0.574951,0.141724,-0.138977,0.793762
278602821070,-0.574219,0.141296,-0.13855,0.794434
278602844138,-0.572876,0.140686,-0.137756,0.795593
278602846600,-0.571655,0.140015,-0.137329,0.796692
278602881713,-0.571167,0.139893,-0.137024,0.797119
278602895298,-0.570557,0.140259,-0.137146,0.797485
278602904272,-0.570068,0.141174,-0.137329,0.797607
278602940957,-0.569031,0.142639,-0.137878,0.797974
278602964902,-0.567261,0.14325,-0.138,0.799194
278602967223,-0.566406,0.144043,-0.137817,0.799622
278603000953,-0.566345,0.145691,-0.137329,0.799438
278603015919,-0.566406,0.147461,-0.137024,0.799133
278603022770,-0.567261,0.148621,-0.137329,0.798279
278603061239,-0.568359,0.149719,-0.137817,0.797241
278603083413,-0.569458,0.150635,-0.138062,0.796204
278603101338,-0.570801,0.151184,-0.138489,0.795044
278603122349,-0.571777,0.150879,-0.138672,0.794373
278603135878,-0.572388,0.150818,-0.13855,0.794006
278603143456,-0.573181,0.150452,-0.138062,0.793579
278603173078,-0.574219,0.149841,-0.137085,0.793091
278603195575,-0.574951,0.149231,-0.136169,0.792847
278603219853,-0.575195,0.148315,-0.135437,0.792969
278603232699,-0.575012,0.147583,-0.134705,0.793335
278603255743,-0.574829,0.147034,-0.134033,0.793701
278603278508,-0.574646,0.146545,-0.133362,0.794067
278603300903,-0.574707,0.146057,-0.132507,0.794189
278603309082,-0.575378,0.14563,-0.131714,0.793945
278603338644,-0.575806,0.14502,-0.130859,0.793884
278603352900,-0.57605,0.144836,-0.130127,0.793884
278603375263,-0.576172,0.144775,-0.129517,0.793945
278603384639,-0.575928,0.144592,-0.129028,0.794189
278603412936,-0.575928,0.144287,-0.128723,0.794312
278603427806,-0.575867,0.144104,-0.12854,0.794373
278603460088,-0.575928,0.144104,-0.12854,0.794373
278603465404,-0.576172,0.144043,-0.128601,0.794189
278603495388,-0.576538,0.144104,-0.128662,0.793884
278603504695,-0.576538,0.144104,-0.128662,0.793884
278603532714,-0.576538,0.144165,-0.128601,0.793884
278603549343,-0.576599,0.144165,-0.128601,0.793884
278603579899,-0.576599,0.144104,-0.128662,0.793884
278603585439,-0.576721,0.144165,-0.128723,0.793701
278603615397,-0.576904,0.144104,-0.128723,0.79364
278603624218,-0.576904,0.144104,-0.128723,0.79364
278603652904,-0.576904,0.144104,-0.128723,0.79364
278603669303,-0.576782,0.144226,-0.128601,0.793701
278603691678,-0.576782,0.144226,-0.12854,0.793701
278603705481,-0.576782,0.144226,-0.12854,0.793701
278603735310,-0.576782,0.144226,-0.12854,0.793701
278603743519,-0.576782,0.144226,-0.128601,0.793701
278603772918,-0.576782,0.144226,-0.128601,0.793701
278603787886,-0.576782,0.144226,-0.128601,0.793701
278603811813,-0.576782,0.144226,-0.128601,0.793701
278603826702,-0.576782,0.144165,-0.128601,0.793701
278603856904,-0.576782,0.144165,-0.128601,0.793701
278603870427,-0.576782,0.144226,-0.128601,0.793701
278603893001,-0.576782,0.144165,-0.128601,0.793701
278603909306,-0.576782,0.144226,-0.128601,0.793701
278603932329,-0.576782,0.144226,-0.128601,0.793701
278603946714,-0.576782,0.144226,-0.128601,0.793701
278603969236,-0.57666,0.144165,-0.128723,0.793823
278603990317,-0.576416,0.144043,-0.128906,0.793945
278604012748,-0.576416,0.144043,-0.128906,0.793945
278604027769,-0.576416,0.144043,-0.128845,0.793945
278604051716,-0.576416,0.144043,-0.128845,0.793945
278604066784,-0.576416,0.144043,-0.128845,0.793945
278604089217,-0.576599,0.144165,-0.128662,0.793884
278604103690,-0.576538,0.144287,-0.128479,0.793884
278604134236,-0.576599,0.14447,-0.128357,0.793884
278604147910,-0.576538,0.144592,-0.128296,0.793823
