timestamp,emg1,emg2,emg3,emg4,emg5,emg6,emg7,emg8
278929130018,-1,0,0,1,1,0,-1,-1
278929130018,-1,-1,-1,-2,-2,-1,-1,0
278929130647,-2,0,-1,-1,-3,-3,-3,-1
278929130647,-1,-1,-1,-1,0,2,2,-1
278929131617,-2,0,-1,0,1,-2,-1,1
278929131617,-2,-2,-2,-2,1,0,0,0
278929132254,-2,-1,-3,-1,1,0,-1,0
278929132254,-1,-2,-1,-2,-3,-1,-1,-1
278929155059,0,-1,-1,-1,-1,0,0,-2
278929155059,-1,-2,0,-1,0,0,0,-2
278929155881,1,0,-1,-2,-1,0,-1,-2
278929155881,-1,0,-2,-1,-1,-2,-2,1
278929158058,-2,0,-1,-1,-2,-2,0,-1
278929158058,-1,-1,-2,-1,1,0,-2,-1
278929165798,-1,-1,0,0,0,1,2,-2
278929165798,0,-1,1,-1,-1,0,-1,-1
278929189101,-2,-1,-2,-3,-1,-2,-3,0
278929189101,1,-1,0,0,-2,0,0,-2
278929190650,-3,-2,-1,-2,0,-1,-1,0
278929190650,-2,-1,-1,-2,-2,0,-2,-2
278929194883,0,0,0,-2,-2,-1,-2,0
278929194883,-1,-1,-1,-1,-1,-1,-1,-1
278929220550,0,-2,-2,-1,0,0,-3,-2
278929220550,-2,0,1,1,-1,-2,0,-1
278929223372,0,1,0,1,0,-1,-1,-1
278929223372,-1,-1,-2,-2,-1,-3,0,-1
278929225573,0,-1,-1,0,-1,0,-1,-1
278929225573,-1,-2,-1,-2,-3,-3,-2,0
278929233554,0,0,-1,0,-1,2,-1,-2
278929233554,0,1,-2,0,0,-1,0,0
278929256826,-2,-2,-1,-2,-2,0,-1,1
278929256826,0,-1,-1,-1,1,-1,-1,0
278929273280,-1,-2,-1,-2,-1,-2,-1,0
278929273280,-1,1,-3,-2,-1,-1,-2,-1
278929274194,-2,-2,-3,0,-1,0,-1,-1
278929274194,0,-1,-2,0,-2,-2,-1,-1
278929285171,-1,-2,-2,-1,-2,1,1,-1
278929285171,-1,0,-1,0,-1,-2,-1,0
278929326427,0,0,-1,-2,0,-3,-1,-1
278929326427,0,0,-1,-1,1,1,-2,-2
278929327344,-1,-2,-1,0,0,-1,-2,-3
278929327344,-1,1,0,1,0,-1,-1,-1
278929347310,-1,-1,1,-2,-3,1,0,0
278929347310,0,-1,0,-2,-2,-1,-1,-1
278929347972,-2,-1,-3,-4,0,-1,-1,1
278929347972,-3,-2,0,0,0,-4,0,-2
278929349641,0,-2,-1,-2,1,4,1,-2
278929349641,-1,-1,-1,-1,-1,0,0,0
278929353518,0,-2,-1,0,-2,0,-4,-2
278929353518,0,-1,-1,-2,-2,-1,0,0
278929354949,-1,1,-1,-1,-3,-1,1,1
278929354949,-1,0,-2,1,0,-1,0,-2
278929377087,0,-3,-4,0,0,-3,1,1
278929377087,-1,-2,-2,-1,-2,-1,-3,1
278929407387,0,-1,-3,0,1,1,-1,0
278929407387,-2,-3,-2,-1,0,-1,1,0
278929408075,-1,1,-1,2,0,1,0,-2
278929408075,0,0,-2,-1,-1,-1,-1,-2
278929409685,1,-1,1,0,2,-2,-2,1
278929409685,-1,-1,-1,1,-2,-2,-2,-2
278929413418,-2,0,0,-1,-1,-3,0,0
278929413418,-1,0,1,0,0,2,-1,1
278929415001,1,-1,-1,0,1,-1,-1,-1
278929415001,1,0,1,-1,1,-2,-2,-1
278929428576,-1,0,1,-1,1,2,0,0
278929428576,1,-2,-2,-1,-4,-1,-2,-2
278929430089,-2,-3,-2,1,-2,-4,-3,-2
278929430089,-1,-1,-2,-1,-2,0,1,0
278929467263,0,-1,1,-1,0,0,1,-1
278929467263,-1,-1,0,-2,-1,-1,0,0
278929468824,1,-1,0,0,-1,-2,-1,0
278929468824,-1,0,-1,0,1,2,-1,-2
278929469615,-3,-1,-2,0,-1,-2,-2,-1
278929469615,-2,-2,-1,-2,1,-1,-1,-2
278929473621,1,-2,-1,-1,-1,-3,-1,0
278929473621,0,-1,-2,-3,-2,-3,-2,-2
278929497418,-1,0,0,-3,1,1,-1,-2
278929497418,1,-1,-1,-1,-1,-9,-4,-2
278929498858,-2,0,-1,-2,-2,0,1,-1
278929498858,-2,-3,-3,0,-1,-2,1,1
278929511562,-3,-4,-3,-3,-2,3,-1,-1
278929511562,-2,7,0,0,2,2,-1,1
278929513199,-1,0,0,-1,1,-2,-1,-2
278929513199,-2,0,0,-2,0,0,2,0
278929533474,-1,-2,0,2,-3,-5,-1,-2
278929533474,-2,-3,-1,-2,-2,-5,0,-3
278929534997,0,0,-1,0,-2,1,-4,-4
278929534997,0,0,-1,0,1,0,2,4
278929548434,0,-1,-1,-3,-3,-1,-2,0
278929548434,2,1,0,1,0,2,1,-3
278929550116,-3,-1,-3,-2,-2,-6,-2,-1
278929550116,-3,-7,-5,-1,-2,1,0,-4
278929562674,4,-4,0,0,0,-2,-1,2
278929562674,-3,2,-3,-2,-2,-2,-1,2
278929587402,-1,-2,-1,1,-1,2,-3,-5
278929587402,1,0,1,-1,0,3,6,0
278929588344,-2,-2,-3,-1,-2,1,-8,-3
278929588344,1,-6,-1,0,1,0,-2,0
278929600265,-7,-2,-1,0,1,2,2,-1
278929600265,1,0,2,0,-2,-2,-2,-3
278929600984,3,4,2,0,-3,1,11,4
278929600984,-4,-7,-4,-1,-3,2,-5,5
278929622732,0,3,1,-3,-2,-2,-5,-3
278929622732,5,-7,3,-1,0,4,3,1
278929623485,3,2,-8,-1,1,-1,-1,-2
278929623485,0,-4,1,0,-2,-3,-6,-18
278929631064,-7,4,-4,0,3,5,4,5
278929631064,-12,2,5,-1,-1,-6,-11,-13
278929654223,14,-1,-2,-4,-2,3,4,20
278929654223,-12,-13,-2,-2,1,8,5,-3
278929655727,21,14,-1,-1,1,-3,0,2
278929655727,-10,-8,-1,-1,-2,-9,-3,-1
278929668461,3,14,5,1,0,10,0,-3
278929668461,-6,-9,-5,-4,-8,-27,-20,4
278929670042,-9,4,-1,-13,-3,8,13,-15
278929670042,2,-4,-1,2,3,-3,-1,1
278929692169,2,5,-8,0,2,2,2,-6
278929692169,-1,2,0,-9,-4,5,2,3
278929693672,4,-2,17,10,1,-4,0,2
278929693672,-29,-18,-27,0,-3,-3,-4,-12
278929705323,8,-3,1,-3,0,-4,-13,-10
278929705323,6,-9,-1,5,3,5,7,42
278929712086,26,19,-2,-12,-7,-5,10,3
278929712086,-44,-8,7,-4,1,7,-11,-21
278929719814,24,0,-2,7,1,-2,3,-3
278929719814,8,9,5,3,0,2,-4,-23
278929744234,-10,-20,2,6,3,4,9,14
278929744234,7,21,8,6,-5,-2,6,6
278929745024,-6,-1,-2,-7,2,0,-3,-5
278929745024,22,7,5,7,-2,-5,8,11
278929781326,-7,-11,-3,-3,0,-2,-17,-4
278929781326,13,5,-8,-4,-1,-5,-1,-4
278929782044,-15,-3,9,0,0,14,-17,4
278929782044,-6,9,4,-3,-3,4,-1,0
278929790620,-24,-42,-23,-5,-6,-21,-10,-40
278929790620,-11,10,9,-10,-1,2,10,22
278929791458,27,10,14,-3,-1,-7,4,7
278929791458,-12,1,-16,1,7,17,8,-10
278929827298,25,19,9,31,11,8,-2,27
278929827298,10,-23,-6,-6,-8,-21,-24,-33
278929827989,-47,6,-10,-57,-14,-8,14,11
278929827989,-27,-24,-2,45,6,1,-11,-5
278929829619,62,31,28,3,6,16,20,19
278929829619,37,2,-32,17,4,4,5,6
278929849657,-67,-31,-7,3,-10,-16,-32,15
278929849657,2,-21,4,-10,5,4,25,3
278929851346,-2,7,-8,-12,-5,-2,-9,-14
278929851346,-61,-3,34,7,6,17,20,26
278929870733,50,-9,-18,-2,-4,-3,29,-16
278929870733,-8,-31,-8,-18,-9,-16,-26,-10
278929902252,-50,-36,-15,-3,-6,-2,-7,-23
278929902252,-49,9,-21,-15,-9,-13,-34,8
278929903071,45,56,34,31,12,4,3,1
278929903071,27,47,25,-2,1,7,9,-17
278929904685,20,-66,-28,14,-7,7,-14,7
278929904685,-41,31,13,-10,-6,-8,3,0
278929909842,-92,-49,4,12,0,7,2,-18
278929909842,48,34,-7,29,9,5,14,7
278929911393,-16,-22,8,-64,-6,30,30,2
278929911393,76,12,-19,29,-4,-29,-42,-16
278929932401,-32,25,82,19,35,83,49,31
278929932401,-57,-109,-74,-26,6,33,13,-7
278929933043,94,82,12,-21,-66,-112,-96,5
278929933043,66,85,72,28,31,76,25,16
278929947954,-65,-5,-5,22,-7,-10,6,-13
278929947954,109,37,-34,-51,8,11,-3,26
278929948853,-56,-88,-11,91,61,107,116,3
278929948853,36,-32,-37,-27,-52,-112,-105,-70
278929969751,50,51,16,-20,-8,-4,3,29
278929969751,-21,31,43,35,28,80,65,17
278929970584,-103,-107,50,-113,-60,-22,-46,-76
278929970584,-26,100,101,74,39,112,38,68
278929972176,16,-70,-100,28,-30,-106,-85,-33
278929972176,-29,27,85,16,1,49,41,23
278929982598,-19,-91,-79,-76,-17,-89,-55,-43
278929982598,59,60,20,72,-3,46,46,27
278929998510,-61,14,87,-48,-24,16,12,-2
278929998510,-38,-66,-123,52,12,-61,-57,5
278930022964,-17,49,127,-94,13,71,97,-27
278930022964,40,-53,18,53,-14,-36,-85,-6
278930024617,-35,48,-65,-2,-28,-47,-38,-7
278930024617,41,39,61,-48,13,56,105,82
278930029175,44,98,90,101,40,68,-45,-75
278930029175,-124,-98,-15,-120,5,59,28,-41
278930030773,67,-56,-73,-54,-9,-77,-93,-19
278930030773,-27,-38,104,-20,-54,-60,-87,-60
278930057487,86,78,18,-3,20,48,82,111
278930057487,-114,-41,-100,32,22,59,96,-4
278930066743,17,18,62,-3,13,25,-78,34
278930066743,71,44,-128,-12,-30,-17,-39,-97
278930067507,6,-8,-18,66,29,34,13,66
278930067507,39,1,90,16,-29,-21,20,2
278930081820,-128,10,-46,-54,35,86,99,-28
278930081820,75,68,-73,26,36,40,53,48
278930082545,-11,-4,41,21,-13,-67,-77,9
278930082545,4,-2,55,-2,-4,-31,19,30
278930088511,-25,-39,-80,28,10,33,-64,-35
278930088511,-18,-49,127,-90,19,70,62,-2
278930102762,-76,-27,-128,-108,-81,-113,-98,-23
278930102762,68,65,76,-71,26,-19,-45,60
278930118549,-14,-41,75,54,1,16,36,-31
278930118549,1,-6,-21,25,5,38,20,-10
278930141559,16,-30,26,-68,10,-4,6,-7
278930141559,-113,-41,-128,-20,-40,-37,-21,22
278930143161,76,36,108,19,2,47,23,-75
278930143161,-4,-7,-78,5,-10,-54,-38,25
278930143931,-49,25,15,35,18,-19,112,21
278930143931,21,43,14,-66,-19,-74,-127,-70
278930154572,6,-43,64,-91,-11,38,83,28
278930154572,-124,-124,-38,19,-39,-53,-79,-25
278930178595,-50,102,122,39,36,76,73,-64
278930178595,61,-19,-128,-105,-63,-76,-21,21
278930180036,38,45,41,7,34,-3,25,5
278930180036,39,24,0,51,21,-21,-48,-46
278930185318,-14,-51,20,-46,-28,-9,-27,-13
278930185318,-85,-52,-96,29,32,127,64,-20
278930192077,76,103,75,26,-50,-72,36,0
278930192077,-28,29,-11,31,3,-14,-60,20
278930199696,9,-9,-128,-5,10,-31,-88,40
278930199696,90,22,82,-12,24,38,40,-84
278930214699,-25,87,22,10,26,54,89,69
278930214699,4,-11,-9,-43,-24,2,-45,-30
278930222091,-22,-62,1,-83,-31,0,26,-7
278930222091,54,-22,-44,37,34,47,-12,-1
278930238539,-71,53,45,-33,-6,41,34,56
278930238539,-18,-22,-66,-17,-54,-65,-38,-69
278930261662,-72,-79,-62,14,-29,40,11,14
278930261662,59,76,100,31,47,47,79,22
278930263165,45,-45,-87,23,21,22,-3,19
278930263165,63,122,127,-62,4,28,66,47
278930264116,-24,-62,-59,110,22,-1,43,-8
278930264116,-76,-38,-94,28,-16,-89,-109,-6
278930276021,-43,-29,-18,29,4,-18,-11,-2
278930276021,34,27,39,-19,13,-2,11,16
278930298477,25,5,1,-13,3,37,-14,-16
278930298477,-11,0,66,-53,-21,-33,-5,30
278930300029,79,21,-54,-96,-48,-76,-56,9
278930300029,-20,-17,-23,98,34,60,53,-18
278930313468,19,31,15,27,18,-37,-28,-15
278930313468,15,17,23,26,30,27,28,-5
278930315028,19,-19,-13,-12,-27,-26,-31,-7
278930315028,-12,-14,8,-27,0,5,17,-13
278930335920,34,29,-2,23,7,23,27,25
278930335920,3,3,12,-27,-3,15,26,34
278930337520,-17,-32,-28,30,1,-39,-52,-10
278930337520,-16,-20,-10,-17,-2,25,27,24
278930359247,32,37,20,12,26,54,-15,20
278930359247,-35,-27,-2,-25,-33,-101,-57,-16
278930360650,-24,-19,-19,48,13,36,4,0
278930360650,-4,-10,-11,2,1,-12,4,13
278930364636,30,21,15,-11,-11,-14,-22,3
278930364636,-26,-8,10,13,-1,38,28,12
278930381045,9,-13,-23,18,26,8,11,-6
278930381045,4,-1,8,-8,4,-16,-9,3
278930396065,-1,12,-3,-46,-40,-6,3,1
278930396065,-10,-5,-8,25,-4,19,16,-10
278930397511,3,5,11,65,51,9,4,14
278930397511,-5,-18,-20,-78,-32,-5,12,-1
278930418949,0,-9,20,10,8,1,-4,0
278930418949,-8,-13,3,-5,2,5,-2,-15
278930420510,2,14,5,-12,-2,-7,-12,-14
278930420510,-3,-8,2,30,17,7,7,10
278930433423,9,8,-3,24,7,-2,-6,7
278930433423,-7,-16,-2,-18,0,2,8,-3
278930435026,-7,-15,-2,2,-8,1,-2,-20
278930435026,-1,4,-2,5,-2,2,-3,18
278930456468,6,7,1,-3,-1,-4,18,28
278930456468,-1,6,0,1,4,12,-2,24
278930458072,-7,-11,-14,-4,-11,-2,-11,3
278930458072,-7,3,1,4,-4,-4,-6,25
278930487356,7,7,5,5,5,-11,-37,4
278930487356,4,2,3,4,-1,11,24,92
278930501570,-8,-3,-12,-4,-8,1,30,62
278930501570,9,1,5,0,5,0,-1,-1
278930502366,-1,4,5,6,0,-2,-13,-40
278930502366,-1,2,-6,-5,-5,3,4,-62
278930504014,-2,-11,-9,-10,-10,-4,-13,-50
278930504014,3,-3,7,6,4,1,10,-16
278930515965,1,5,1,6,2,5,6,-24
278930515965,-3,-1,-2,-2,-3,-1,-2,-12
278930517534,-3,-5,-2,-2,0,-5,-7,-25
278930517534,-6,2,5,6,-1,-2,-3,-30
278930538880,0,1,-1,2,-1,3,0,-14
278930538880,4,-2,-2,-3,-1,1,7,-16
278930540425,0,-4,-2,0,-2,2,-1,-20
278930540425,-3,-1,-2,0,-4,-4,4,2
278930553368,1,0,0,-1,0,-4,-19,14
278930553368,-4,-3,-1,-4,-3,-9,-21,-10
278930554946,-1,-1,-4,0,-1,5,42,-10
278930554946,5,4,1,3,6,14,22,8
278930575884,-1,-2,-2,2,0,-1,10,15
278930575884,-6,-4,-3,-3,-6,-8,-23,-34
278930577470,-4,-1,-1,2,-1,-5,-36,-3
278930577470,6,2,1,-1,-1,1,1,-14
278930590811,-1,-1,2,0,-1,-2,9,16
278930590811,5,1,2,1,6,14,34,-10
278930592400,-6,-4,-5,-3,-1,1,1,8
278930592400,-13,-4,0,3,2,-6,-20,-12
278930606980,-5,1,0,-4,-10,-4,-9,1
278930606980,-5,0,-3,-9,-5,-3,-3,4
278930619496,4,0,-4,0,0,0,-1,-2
278930619496,6,-6,3,3,0,0,6,23
278930635868,0,0,-1,-1,4,-1,-2,-5
278930635868,-1,-5,-4,2,-7,-5,6,0
278930637469,-3,1,-1,1,-1,-3,-5,-7
278930637469,-1,1,-3,-2,-4,-5,-15,-14
278930658825,3,-2,-1,-2,3,3,11,-5
278930658825,2,-1,1,-1,-1,3,22,-2
278930660508,-4,-5,-1,-2,-2,-5,-24,3
278930660508,-3,-3,-2,-1,-6,-9,2,-2
278930673381,8,5,1,2,3,11,18,14
278930673381,-1,1,-1,0,2,1,-25,1
278930675064,-1,-2,-2,-2,-4,0,6,-7
278930675064,-2,-2,1,-3,-1,-3,-2,-5
278930696389,2,2,-1,0,-1,-1,12,1
278930696389,1,1,1,1,3,0,-7,19
278930697970,-2,-2,-1,0,2,-5,-9,-23
278930697970,-3,-2,-3,-3,-5,0,2,1
278930710929,-4,-3,0,2,2,-3,-1,-5
278930710929,-1,0,0,-1,-2,-2,-11,-2
278930712524,0,-1,0,-3,-4,-1,3,15
278930712524,2,1,-1,2,1,2,9,5
278930733393,0,-2,-2,0,0,2,-2,-8
278930733393,-2,6,4,-3,-1,-4,0,-2
278930734959,0,0,-11,-2,-2,-1,-5,7
278930734959,-6,-10,0,0,-2,-4,-5,-15
278930777485,-5,-2,-5,-1,1,-1,-16,6
278930777485,2,0,5,9,1,-3,4,-8
278930795533,6,7,-2,0,3,6,4,4
278930795533,-2,3,-3,-2,-1,0,5,6
278930796407,4,6,3,1,2,-1,20,8
278930796407,-4,-4,-6,-2,-3,-2,-12,8
278930817315,-2,-4,-1,-3,-4,-3,-11,0
278930817315,-2,2,0,1,-1,-2,-13,-4
278930818026,-3,-7,-3,-1,1,0,10,-17
278930818026,-4,-3,-1,-1,1,2,-11,8
278930819827,-1,0,-3,-5,-4,-3,5,-4
278930819827,5,1,0,0,3,5,10,7
278930833048,-5,-2,2,0,-1,0,-1,-4
278930833048,-1,0,0,0,1,-1,-3,-2
278930833911,-1,0,0,0,-2,-4,-5,-3
278930833911,-2,-2,-2,-1,-2,-5,-8,-7
278930854188,0,-3,1,0,1,4,5,16
278930854188,1,1,-2,0,-1,2,3,-8
278930854867,0,0,2,-1,-3,-1,-6,0
278930854867,-1,-3,-3,-1,-1,1,5,-2
278930856474,0,-1,2,-1,1,-2,-1,0
278930856474,-3,0,-3,-1,2,-2,4,3
278930883392,-2,1,1,-1,-1,-1,-10,-7
278930883392,-2,-1,-1,-3,-3,-1,4,-10
278930884994,1,4,0,1,-3,-2,5,17
278930884994,0,-12,1,-1,0,0,-3,1
278930890609,-1,-2,-2,-2,0,-2,-2,1
278930890609,-5,-2,-3,-3,-3,-2,-1,-16
278930914873,-2,-1,1,-1,1,-4,-4,-7
278930914873,1,2,-1,0,1,1,1,5
278930915481,1,0,-2,-1,-3,0,-1,3
278930915481,1,-1,-1,-1,0,0,3,4
278930917069,-1,-2,-1,-2,-2,0,0,-3
278930917069,-1,3,1,1,2,1,0,3
278930936149,-2,-2,-1,0,1,1,-1,-7
278930936149,-2,0,-2,-2,0,1,6,8
278930937487,5,1,1,-1,-1,-3,-4,-4
278930937487,-3,1,-1,-1,-2,-3,-5,-11
278930951399,-3,-2,-2,-1,-1,-3,3,11
278930951399,-2,-2,-2,-1,1,0,-3,-3
278930952968,-5,-2,-2,0,-2,0,-2,1
278930952968,2,0,-1,-2,-3,-2,5,1
278930973883,0,0,1,0,-2,-4,-3,-5
278930973883,-2,-2,-3,0,-3,0,0,-2
278930975486,-4,-4,-1,-1,-1,-1,-1,-10
278930975486,0,2,-3,0,-2,-3,-1,10
278931012183,-2,-2,-1,-2,-2,0,-2,-6
278931012183,1,-1,0,0,-2,-1,1,1
278931013787,-2,-2,-2,0,1,4,1,-7
278931013787,-2,1,-1,1,-1,0,-6,-8
278931014596,-1,-1,-1,1,-1,-4,-4,-1
278931014596,2,-1,-2,-3,0,0,0,13
278931018538,-3,-2,-2,0,-1,-3,-4,-7
278931018538,-1,-1,-2,0,-1,0,4,1
278931033134,0,-2,0,-1,0,1,1,-2
278931033134,-2,0,-1,0,0,1,-4,-6
278931041029,-2,0,-2,-2,-1,-2,-1,2
278931041029,-2,-1,-2,-3,-1,-2,-2,1
278931056094,-2,-1,1,0,-3,-1,0,-4
278931056094,1,-1,0,1,1,0,1,8
278931057541,-1,-2,0,-1,0,0,4,-2
278931057541,1,1,0,-2,-3,-1,-1,-1
278931071403,-1,0,-2,0,0,0,2,1
278931071403,-1,-1,-3,-1,-1,-3,-10,-2
278931073125,-2,-2,0,0,-2,-2,2,-1
278931073125,-3,-3,-1,0,-1,4,-4,-4
278931092545,1,-3,-2,-2,0,1,2,0
278931092545,-1,-1,-1,-1,-1,0,0,-6
278931110545,2,-2,0,1,0,-1,1,20
278931110545,1,1,1,-1,0,-3,-1,-6
278931111326,1,1,-2,0,-1,-3,-2,-1
278931111326,-1,1,-1,-1,0,0,-7,-3
278931130888,-1,-1,-2,-1,1,2,-2,-5
278931130888,0,-2,-1,-1,0,2,12,-1
278931131635,1,1,-1,-1,-2,-1,0,6
278931131635,-2,0,1,-4,-2,-3,-1,-3
278931137105,-4,0,0,-1,-1,-3,-9,-7
278931137105,-1,-1,-3,-1,1,1,-1,-3
278931168614,1,-4,0,1,1,1,1,-1
278931168614,0,-1,-1,1,-1,-1,0,0
278931177830,-2,-2,-2,-1,-2,0,-2,-4
278931177830,2,0,1,-2,0,-2,-1,2
278931178689,0,-1,0,0,-1,0,-1,-3
278931178689,-1,-1,-2,0,0,3,3,1
278931191036,-1,0,-2,-1,-2,-2,-5,-4
278931191036,-2,-1,-2,0,-3,-2,2,2
278931191709,-1,0,-1,-2,0,-3,0,2
278931191709,-4,-2,0,-1,0,1,-3,-2
278931197037,0,0,-2,-1,-1,-1,1,-5
278931197037,-2,-2,0,0,-1,-1,-4,2
278931213571,0,0,-2,-2,-2,-2,-3,3
278931213571,-1,-1,-1,-1,0,0,0,-6
278931214978,-1,-1,-1,1,-1,0,-2,4
278931214978,-1,0,0,-2,-2,-1,0,-2
278931228174,-1,-1,0,-3,-1,-1,-1,1
278931228174,1,0,0,2,0,-7,-6,-4
278931250896,0,-3,-2,-1,-1,-4,-1,1
278931250896,0,-1,0,-2,-2,-3,-1,-3
278931251700,-2,-1,-1,-2,0,5,2,-10
278931251700,1,0,-2,-3,-2,-3,2,8
278931257049,1,-2,-1,-1,-3,-2,-5,-5
278931257049,0,0,0,0,-1,2,1,11
278931289701,-1,-1,-1,0,0,2,-1,0
278931289701,1,-2,0,0,0,0,0,-1
278931291334,-3,-1,-1,0,2,0,-5,-7
278931291334,-2,-2,-1,-2,-3,-3,2,1
278931292120,-1,-1,-1,-1,-5,-4,-3,-1
278931292120,-2,-1,-3,-1,-2,1,3,-9
278931319038,0,-1,0,-2,-1,0,6,4
278931319038,0,-1,-1,-1,2,-4,-10,0
278931319824,-3,-1,-1,0,1,-3,0,-1
278931319824,-1,-1,-2,-1,-3,-2,-1,1
278931321472,-1,-1,-2,-1,-2,0,1,-2
278931321472,-2,1,1,1,-1,-1,1,-6
278931333973,-1,0,-2,0,0,0,-2,-4
278931333973,0,-1,-1,-1,0,0,0,12
278931335447,-2,-2,-2,-3,0,0,-2,-5
278931335447,2,-1,-2,-1,0,1,4,12
278931348242,0,-1,-1,1,0,-2,-4,-1
278931348242,-1,0,-1,-1,1,-3,-6,-13
278931354601,1,1,0,0,0,-2,2,8
278931354601,-3,0,-2,0,1,2,-1,1
278931370700,-1,0,-1,-2,-2,-2,1,-2
278931370700,0,-1,-1,-1,-5,-1,2,1
278931377193,-3,-1,0,0,-4,-2,-4,-4
278931377193,-2,-1,-2,-2,-3,0,-5,-6
278931409976,-1,0,-1,-1,-2,-2,1,0
278931409976,0,0,-1,-1,2,2,0,7
278931411355,1,0,0,-3,-2,0,4,5
278931411355,1,-1,0,-2,-2,-3,-1,-4
278931412226,-1,-1,1,1,2,2,-1,-3
278931412226,0,-1,1,-1,1,-3,-6,-1
278931423511,-3,-2,-2,-1,-2,-1,-5,-11
278931423511,1,-3,-1,0,1,2,3,9
278931438489,-1,-2,0,-2,-3,-2,-1,1
278931438489,0,-1,-1,-2,-3,-2,3,-1
278931440022,-2,-2,-2,-2,0,0,0,2
278931440022,-1,-1,0,1,-3,-2,0,-10
278931452991,-1,0,-3,-1,-3,0,-1,0
278931452991,-3,-1,-2,0,-3,-3,-1,0
278931469889,0,-1,-1,-3,-2,-1,2,-2
278931469889,-3,-1,-1,0,-2,-1,-7,1
278931470717,-1,0,-1,-2,0,2,6,-3
278931470717,-2,-1,0,-1,-2,-1,-3,-5
278931474536,0,1,-2,0,-3,-3,-2,1
278931474536,0,-1,-1,0,2,1,1,-2
278931506026,-1,-1,2,-1,0,-2,-7,-2
278931506026,-2,-3,-2,0,0,0,0,0
278931507530,-2,-1,1,0,2,-1,-3,-2
278931507530,-2,0,-1,-1,1,0,6,-1
278931529783,-3,-1,-1,0,0,1,-2,2
278931529783,-2,1,-2,-1,-1,-1,-2,-7
278931531319,2,0,0,-1,-2,-2,3,10
278931531319,-1,-2,-2,-1,-2,-1,-5,-3
278931532141,-2,-2,-1,-1,0,-1,3,0
278931532141,-1,-1,0,2,1,0,-1,0
278931559261,0,-1,-1,0,0,-1,-3,-7
278931559261,-2,-1,-2,-3,-4,-6,-2,-2
278931559893,1,0,-1,-2,-3,-1,-1,2
278931559893,0,1,0,-2,0,0,-2,-2
278931561559,-4,-2,-1,-2,1,1,2,-3
278931561559,-1,-2,-1,2,0,1,-2,-4
278931573386,0,-1,-2,-1,-2,-4,0,-3
278931573386,-1,-1,0,-1,0,-2,0,4
278931574975,-1,2,0,0,-1,-2,-4,-4
278931574975,0,-1,-1,-1,2,-2,2,-2
278931596347,-1,0,-1,-1,-1,-1,-5,0
278931596347,1,-2,-3,-2,-4,0,3,2
278931597946,-2,-1,1,1,-2,2,1,-5
278931597946,-2,1,-1,0,-2,0,0,-1
278931610731,-1,-1,0,1,3,0,-3,-3
278931610731,-2,-1,-1,0,0,-1,3,4
278931624547,-1,-1,-2,-1,-1,-2,-7,-4
278931624547,0,0,-1,-2,0,1,4,8
278931649748,-2,0,-1,-1,-2,-1,0,-1
278931649748,1,0,1,-3,-1,1,2,-2
278931651360,-2,-1,-1,-3,1,-1,0,4
278931651360,-2,-1,0,-1,0,-1,-12,-8
278931652163,-1,-1,-1,-1,0,1,8,3
278931652163,0,-1,-1,1,-1,0,0,-3
278931656021,-1,-1,0,0,-2,-3,-1,1
278931656021,0,0,0,0,-3,-4,-4,-6
278931686008,1,-1,-1,0,1,3,6,20
278931686008,-1,-1,0,-1,-1,-3,-3,-9
278931687517,0,-1,-2,-1,-1,-3,2,5
278931687517,-2,-2,-1,-1,-1,0,-1,0
278931693839,-1,-2,-1,0,-1,1,-2,-6
278931693839,-1,-1,0,2,0,3,1,0
278931716682,-2,-1,-3,-1,0,0,-4,-2
278931716682,-3,-2,-2,0,-1,-2,-1,-4
278931717351,-1,-1,0,-1,-1,-2,-2,-4
278931717351,-2,0,0,-2,-1,-3,-4,2
278931718894,2,0,0,0,-2,1,1,-6
278931718894,0,-3,0,-1,0,2,2,-2
278931746996,-2,-1,-1,0,-2,0,-6,-4
278931746996,0,-1,-3,0,-1,-2,-2,2
278931748575,1,0,-2,1,-1,-1,0,-1
278931748575,-1,-1,-1,-2,-1,-2,-4,-2
278931753452,-1,0,0,-3,-3,-4,3,-4
278931753452,-1,-1,-1,-2,0,-2,2,-1
278931755010,-1,1,-2,-1,-1,1,0,6
278931755010,2,0,1,0,-1,1,1,5
278931776471,-3,-2,-2,-1,-3,-1,-8,-11
278931776471,0,0,-2,-1,0,1,2,0
278931777957,-1,0,-1,-2,0,-3,0,-2
278931777957,-3,-1,-1,-1,0,0,0,-1
278931799026,-2,-2,-3,-2,-2,-1,0,2
278931799026,-1,-1,-1,-1,-1,0,2,0
278931804546,1,-4,-3,-1,-1,-2,-1,2
278931804546,-2,1,-1,-1,-4,-1,-3,-1
278931813565,1,-1,1,1,0,2,-2,-1
278931813565,0,-2,-1,1,0,0,0,-2
278931815048,-1,-1,0,-2,-2,-3,-5,-2
278931815048,0,-1,-1,-1,-1,-1,0,0
278931835855,-1,-1,-2,-3,1,2,0,-1
278931835855,-1,0,0,-1,0,-1,-2,9
278931837460,-1,0,1,0,2,0,-2,-7
278931837460,0,0,-1,0,-1,-1,1,0
278931850200,-1,-1,-2,0,-1,-3,-1,0
278931850200,-1,-2,-2,-1,0,0,-2,0
278931864502,-4,-2,-1,1,-3,0,-7,-7
278931864502,1,0,-2,-2,1,1,6,6
278931873325,2,1,0,-2,-1,0,4,13
278931873325,-2,-1,-1,0,-1,-1,-1,-2
278931875032,-2,-1,-2,-2,0,-1,1,2
278931875032,-3,1,-2,-2,-2,-2,-9,-16
278931887626,-1,1,-2,0,-1,-3,2,10
278931887626,0,0,-2,0,0,-1,-2,-2
278931903513,0,-1,0,2,1,0,2,8
278931903513,-1,-2,-1,-1,1,-1,-2,-2
278931925864,-3,-1,-1,-2,0,-4,-6,-15
278931925864,0,-1,0,-2,-3,0,5,10
278931927505,0,-1,0,-2,0,1,-2,-8
278931927505,-2,-3,0,1,-2,-2,-5,-4
278931941574,-2,-2,-1,-2,-2,-3,-4,-3
278931941574,0,1,0,-1,1,0,2,2
278931943162,-1,-1,-2,-1,-1,0,-6,0
278931943162,0,0,0,0,0,1,7,4
278931955878,0,-1,-1,0,-2,1,2,-3
278931955878,-2,-1,0,-1,-2,-4,-3,-6
278931957476,-2,-1,0,1,-2,-1,0,0
278931957476,-2,0,0,0,0,-1,-5,-6
278931970248,3,0,0,-1,-1,4,4,15
278931970248,0,0,-1,-1,-2,-1,-1,-7
278931994220,-1,-1,-2,-1,-3,-3,3,1
278931994220,-1,-2,-3,-2,-1,0,-2,1
278931994835,1,0,-1,0,-1,-2,0,-3
278931994835,-1,-1,0,0,1,0,-6,-6
278931996510,-2,0,-1,-2,-1,-1,-2,-2
278931996510,0,-1,0,0,-1,0,3,4
278932007526,-2,-1,-2,0,-1,-2,0,-3
278932007526,0,-2,-1,-1,-1,-3,-5,-2
278932032403,-1,-2,0,0,-1,1,0,-4
278932032403,0,-2,1,0,-3,-1,1,3
278932033182,-1,-2,-2,0,0,2,-2,2
278932033182,-2,-1,-1,-1,-2,-1,-3,-4
278932060829,0,-1,-2,-1,0,-1,-1,0
278932060829,0,-2,-2,-2,-2,-4,-7,-2
278932061367,-2,0,0,2,1,0,2,-1
278932061367,0,-1,-1,-1,3,-1,3,-5
278932085587,0,0,-2,-1,-2,-2,-1,6
278932085587,-2,-2,-3,0,-2,-2,-4,-5
278932086385,0,0,-2,-1,-1,-5,-2,-1
278932086385,-1,0,0,-2,-4,-2,-3,-4
278932099053,-1,0,-1,0,0,-1,0,-1
278932099053,-2,-1,-1,-1,-1,-1,-3,-3
278932099975,-2,-1,-1,-2,-4,0,-6,-8
278932099975,2,0,0,0,2,0,4,4
278932101441,1,1,0,0,0,2,3,9
278932101441,0,0,-1,-2,-2,-2,0,3
278932114267,-1,-2,-1,0,-3,1,-2,-2
278932114267,-2,-2,-1,0,-2,-1,-4,-6
278932121073,-1,-2,-1,-2,-3,-4,-5,-8
278932121073,0,-1,-2,0,-1,-2,5,5
278932127229,-2,-1,-1,-3,1,-2,-2,-4
278932127229,-2,-1,0,-1,0,0,-1,0
278932153104,0,-2,1,-1,3,-1,-1,-3
278932153104,-1,0,1,0,0,0,2,-1
278932153923,-2,-1,0,-1,0,-2,-3,-3
278932153923,-2,-1,-1,-1,-3,-1,-2,-4
278932164518,1,0,0,0,-3,0,2,7
278932164518,0,0,0,-3,-2,-1,-2,-3
278932180876,-1,-1,-1,0,-1,2,-2,-4
278932180876,-2,-3,-2,0,-2,-1,-3,2
278932182581,2,0,-2,-2,-2,2,1,-4
278932182581,-3,-2,-1,-3,0,-1,2,-1
278932203386,-2,1,-3,-3,0,-3,-1,-2
278932203386,-2,0,-1,-1,-1,-1,-1,0
278932204994,-2,-1,-2,-1,0,0,-4,-3
278932204994,1,0,0,1,1,-1,0,7
278932210153,-1,-3,-2,-1,1,-1,5,-1
278932210153,-1,-2,0,-2,0,-1,-2,0
278932217011,-3,-3,-1,-1,-3,-4,-2,0
278932217011,-1,1,0,0,1,0,-5,-5
278932248543,-1,1,1,-1,-1,-4,-4,0
278932248543,0,2,-3,-2,-1,0,1,-5
278932249986,0,-2,-2,-1,1,0,6,8
278932249986,-1,-1,0,1,-1,1,-3,-5
278932272312,0,-1,-1,-1,-2,0,-2,-1
278932272312,-1,-2,-2,-1,-1,-1,-4,-3
278932273818,-1,-1,-1,0,0,-2,-1,-7
278932273818,-1,-1,-2,1,0,1,0,-3
278932274651,0,0,0,1,-1,-1,3,6
278932274651,-1,0,-1,-3,-2,-1,0,1
278932286057,-3,-2,1,-3,-2,-1,-1,-1
278932286057,0,-1,-1,-1,1,-1,-3,1
278932300926,0,1,-1,0,2,1,-3,-8
278932300926,-1,-1,0,0,1,2,1,6
278932302506,-1,1,1,2,-3,1,-1,-4
278932302506,-2,-2,-2,-2,-3,-2,0,-2
278932323350,0,-1,-2,-2,0,-1,0,2
278932323350,-1,-1,-1,-2,-1,-1,0,0
278932324990,-3,0,-3,-2,-2,-1,-1,-2
278932324990,-2,-1,-1,-1,0,-1,-4,-7
278932330328,0,-2,-1,-2,-2,1,3,7
278932330328,1,-1,1,1,1,3,0,1
278932337082,0,0,-1,-2,-1,-2,1,5
278932337082,-1,-3,0,-4,-1,-1,-2,-2
278932361378,-1,-2,0,-1,1,-1,-3,-4
278932361378,0,0,0,-2,0,1,1,0
278932362962,-1,-1,-3,-2,-3,-1,-3,-2
278932362962,2,0,0,-2,-3,0,0,0
278932375828,0,-2,-1,-1,-2,-1,-2,-2
278932375828,-2,-1,-2,0,-1,-3,1,-1
278932392395,-2,-3,-1,-1,-1,-1,-2,-4
278932392395,-1,-1,-2,-1,0,1,-2,-1
278932393208,-3,-1,-2,-2,-4,-3,-2,-3
278932393208,0,-1,-2,-2,-2,-2,-1,4
278932397114,0,-1,-1,0,1,1,0,-2
278932397114,-2,-1,-1,0,0,-1,0,2
278932428847,0,-2,-1,-1,-3,0,-2,-2
278932428847,-1,-1,0,0,-1,-2,-5,-6
278932444050,-1,-2,1,-1,0,-1,1,2
278932444050,-1,0,1,1,-1,1,0,0
278932444802,-3,0,0,1,0,-3,0,-1
278932444802,-1,-2,0,0,-1,-1,0,-1
278932446493,2,0,-3,2,1,2,-4,-4
278932446493,-4,0,0,1,-1,-4,-5,-8
278932458405,-1,-1,-1,-1,-3,1,3,2
278932458405,-1,-2,-2,0,-2,0,2,3
278932459961,-2,-1,0,-3,-3,-2,-3,0
278932459961,0,0,0,0,-1,-1,3,3
278932480879,0,-1,1,-1,1,-3,-7,-6
278932480879,2,0,-2,-2,-1,-3,4,2
278932482487,-1,1,-1,-1,-1,-4,-1,-5
278932482487,-1,-2,-1,-1,-2,-2,-1,0
278932496587,-2,-2,-1,-1,2,1,1,1
278932496587,-2,-1,-1,-1,-3,-3,-3,-4
278932498201,-1,-1,-1,-3,-4,-2,-2,-5
278932498201,-1,1,-2,-2,0,-2,-1,4
278932518536,-1,-1,-1,-1,-1,-1,-2,-4
278932518536,-2,0,0,-2,0,2,2,-1
278932520044,-1,-1,-2,-3,1,1,0,-1
278932520044,-2,-2,-1,-1,-3,-2,-4,-2
278932548591,0,0,-1,-2,-1,0,2,3
278932548591,-1,0,-1,1,1,-1,-4,0
278932550038,-1,0,-1,-2,-2,-1,-1,0
278932550038,-1,-2,-1,0,3,2,2,-1
278932564090,0,-1,-2,-1,1,0,0,1
278932564090,-2,-1,-1,-2,0,0,0,-1
278932565673,-2,-2,-1,-2,-1,-2,0,2
278932565673,1,1,-1,-3,-2,0,2,-3
278932578445,0,-2,0,0,-2,-1,-3,0
278932578445,-3,-3,1,0,-1,1,-2,-3
278932580054,-2,-3,-1,0,0,0,0,-1
278932580054,-2,1,-1,-1,-1,-1,0,2
278932600872,1,1,-1,0,-3,-4,-2,-2
278932600872,-1,0,-1,-1,-2,-1,-1,0
278932602460,0,-1,-1,-1,0,0,-3,-2
278932602460,-3,0,0,-1,0,-2,-1,-3
278932615943,-1,1,-1,-1,1,0,-1,-1
278932615943,-1,0,-1,-1,-2,-3,-2,-1
278932632130,-2,-1,-1,-1,-1,-3,-1,-1
278932632130,1,-2,-2,-1,0,-1,0,1
278932637474,0,-1,0,-3,-5,-2,-1,-1
278932637474,0,-1,-1,-1,-3,-2,0,0
278932652559,-2,-2,1,1,-2,1,-1,0
278932652559,-1,-2,-2,-1,1,2,1,-1
278932669068,-1,-1,1,0,0,-3,-2,0
278932669068,-1,-2,-1,0,0,2,1,-2
278932670611,-1,1,-1,-1,0,-1,0,1
278932670611,1,-1,0,-2,-3,-1,-1,0
278932683410,0,-2,-1,0,0,1,-1,-1
278932683410,-2,0,-1,-1,-5,-3,-5,-2
278932684967,-2,-1,-1,2,0,0,1,-2
278932684967,0,-2,-2,2,0,1,0,0
278932720103,-3,-2,-2,0,-2,-1,-1,-6
278932720103,2,-2,-1,2,-3,-1,1,8
278932738029,0,-2,2,2,0,0,0,6
278932738029,-3,-2,0,1,1,-1,-2,-4
278932738926,-1,1,-2,3,-1,0,1,-3
278932738926,0,-2,-1,1,1,1,-2,-6
278932759893,0,-1,0,1,-1,-4,-2,-3
278932759893,-1,-1,0,0,-1,-3,0,3
278932760513,-4,-1,-1,-2,0,-1,0,2
278932760513,-3,-2,-1,-2,0,-2,-4,-2
278932762157,0,-2,-1,-2,-3,-1,-3,0
278932762157,-2,-2,-3,-2,-2,-2,-1,3
278932766049,-1,-2,-1,-2,-1,2,0,-3
278932766049,-2,-2,-1,-1,-1,-1,-3,-3
278932797224,1,-2,-1,-1,-1,-1,-1,0
278932797224,-2,-2,-1,-1,0,-2,-1,0
278932798860,-1,-1,-2,-1,-2,-4,-3,-3
278932798860,-1,0,0,-3,0,-1,-5,-7
278932799679,0,1,-1,-2,0,3,4,9
278932799679,0,-1,-1,0,2,1,0,-3
278932803588,-2,-1,0,-1,-3,0,1,-1
278932803588,1,0,0,1,-2,-2,0,-4
278932826058,-2,0,-2,-2,-4,-2,-3,-4
278932826058,-1,-1,-2,-2,-2,-4,-2,-2
278932827510,-2,-2,-1,-1,0,-2,2,3
278932827510,-1,0,1,-1,-1,0,-2,-1
278932857367,-1,-2,-1,-2,1,-3,-1,-3
278932857367,0,1,-2,1,0,1,0,-2
278932858835,-1,-1,-1,-3,-3,-2,0,1
278932858835,-4,-2,-2,-2,-1,0,-2,-2
278932859645,-2,0,-1,1,-1,0,-1,0
278932859645,-1,0,-1,-1,0,0,0,1
278932863527,-1,-2,-2,0,-1,-1,-1,-2
278932863527,-1,-2,-2,-2,-4,-4,-4,-1
278932878966,-1,-3,-2,0,0,0,-1,-1
278932878966,-2,-2,-1,0,-1,1,-3,-2
278932893546,1,0,1,1,0,3,0,0
278932893546,0,-1,0,0,-1,0,2,1
278932894204,-1,0,0,-2,-3,-3,-1,-2
278932894204,-1,0,0,-2,-1,1,0,-1
278932915571,-1,-3,-3,-2,-2,-2,-1,-3
278932915571,0,-1,-1,-1,-1,-3,1,8
278932923246,-1,-2,0,0,1,-1,-2,-4
278932923246,-2,1,-1,-3,-1,-2,-1,3
278932924906,0,0,-1,-2,0,2,-1,-2
278932924906,-1,-1,-2,-3,-1,0,-4,-5
278932946318,0,-2,-2,0,2,-1,1,-1
278932946318,-1,0,-2,-1,1,-3,0,-1
278932961713,0,1,-1,-2,-1,-2,-2,-2
278932961713,-2,-2,-4,0,-2,-1,-1,1
278932962329,-2,-2,-2,-3,-2,-1,-1,-1
278932962329,1,1,0,1,-2,0,1,-2
278932963967,0,-1,-2,-2,-1,-5,-1,2
278932963967,0,-1,0,1,0,-4,-1,-3
278932984003,-2,-1,-1,-2,-2,-3,-1,0
278932984003,-1,-3,0,0,-1,1,2,5
278932985406,-3,0,-1,0,0,0,-1,-1
278932985406,-1,-2,1,-2,-2,1,-1,1
278932999104,-2,0,-1,0,-1,1,-3,-3
278932999104,0,-2,-2,-4,-2,-1,-3,-7
278933000596,1,1,0,-2,-4,-2,3,7
278933000596,-2,0,-2,-2,-1,1,2,0
278933020771,0,0,0,-2,-2,-1,1,-2
278933020771,-1,-1,-1,-2,-2,-1,0,-1
278933037377,-2,0,-3,-1,2,1,-1,0
278933037377,0,0,1,1,2,-2,1,-3
278933038151,-1,-1,-1,-2,0,-1,0,5
278933038151,0,0,0,0,1,-2,-3,-5
278933041985,-1,-1,-1,-1,-1,-1,-1,-2
278933041985,-3,-3,-1,0,0,1,0,0
278933074696,0,0,-3,-1,-3,-2,-1,0
278933074696,-2,-2,-1,-1,-2,0,-1,1
278933076252,0,0,-1,-1,-2,0,-2,-4
278933076252,-1,0,-2,-1,-1,-1,-1,-1
278933077153,-1,-1,0,-1,-1,2,1,2
278933077153,-2,-2,-1,0,-1,1,1,4
278933080967,0,-2,-1,-1,-2,-3,-2,-4
278933080967,1,-3,-2,0,-1,-2,-1,-1
278933119810,-1,-1,-1,-1,-1,-5,-3,-2
278933119810,0,0,-1,0,0,-3,-1,-1
278933121389,-1,-2,0,0,0,0,-1,-6
278933121389,-1,1,-1,-3,-2,0,0,2
278933122193,-3,1,-1,0,1,0,-2,-4
278933122193,-1,-1,-1,-2,-1,-3,0,0
278933143032,-2,-1,-1,0,-2,-1,0,-2
278933143032,0,0,-1,-1,-1,0,0,-2
278933143855,-2,-1,-1,-1,0,1,-1,-1
278933143855,-2,1,-1,-1,0,-1,0,-1
278933155953,0,-1,-2,-1,-2,-2,-1,2
278933155953,-2,-1,0,-2,-4,-3,-3,-1
278933156710,-2,-2,0,-1,-2,-3,-2,-1
278933156710,1,-1,-2,-1,1,-1,-2,0
278933169750,2,-2,-1,-2,-1,1,0,0
278933169750,-1,0,-1,-1,-1,1,1,-1
278933194839,0,-3,0,0,-1,0,-2,-1
278933194839,-2,-2,-2,-3,0,-2,0,-3
278933196362,-2,-1,-1,-1,-1,0,-2,0
278933196362,0,0,-1,0,2,0,0,1
278933197150,0,1,-1,1,0,-1,-1,-2
278933197150,1,-1,-2,0,-1,0,2,5
278933208492,-1,-1,-1,-3,1,-1,-3,1
278933208492,0,-1,0,-3,-1,0,-1,-3
278933223545,-2,-2,-1,-1,-1,-1,-1,-1
278933223545,-2,-3,-1,-1,-5,-3,-1,-4
278933225071,-2,0,-2,-1,-2,-2,-1,-3
278933225071,2,-2,-3,-1,-1,0,1,1
278933238894,0,-1,-1,-2,0,1,2,0
278933238894,-1,0,1,0,1,0,-2,-3
278933240487,-2,-1,0,0,0,0,0,0
278933240487,-1,-3,-1,1,0,-3,-4,-1
278933261492,-1,-2,-2,-1,-1,-1,-1,-1
278933261492,0,-1,-2,-1,0,-2,-2,-1
278933262962,-1,-1,0,-2,0,-2,1,1
278933262962,-1,-1,-2,-1,1,2,0,0
278933291337,1,-1,1,-1,0,-3,-1,-1
278933291337,-1,-1,0,-1,-1,-1,2,1
278933292987,-1,0,-1,0,-1,-3,-4,-1
278933292987,-3,-1,-2,-1,-2,0,-3,-4
278933314752,-1,-3,-1,-1,-2,0,-1,-2
278933314752,0,0,-1,1,0,3,3,9
278933316331,-2,-1,-2,-1,-1,-1,2,0
278933316331,0,0,-1,-2,-2,-2,-1,0
278933317102,0,-1,-3,1,-1,-1,-1,-2
278933317102,-2,-2,0,0,-1,-1,-1,-3
278933329167,-1,-1,0,-1,-1,-1,1,-1
278933329167,-1,-1,0,-1,0,-2,-4,1
278933344074,-1,1,-1,0,1,0,-2,0
278933344074,0,-1,0,-1,-1,-1,-1,-4
278933345729,-2,-1,-1,1,1,0,-1,-1
278933345729,-2,-1,-1,0,0,1,3,2
278933358337,0,-2,0,-1,-2,-2,0,0
278933358337,-3,-1,-2,-1,-2,-5,-6,-5
278933382184,-1,0,0,-1,-1,-1,-1,-1
278933382184,-1,-2,-1,0,0,-2,-2,-2
278933382982,-2,0,-1,-2,-2,0,0,0
278933382982,0,1,1,-2,-1,1,1,0
278933395859,-3,-1,0,0,-1,-1,-3,-6
278933395859,0,-2,0,0,-1,1,7,9
278933396827,-2,0,-1,-2,-1,-2,-2,1
278933396827,1,1,1,-1,0,-4,-3,-5
278933419783,0,-1,-2,-1,1,-2,-2,2
278933419783,-1,-1,-2,-1,-1,0,-1,-4
278933420502,0,-2,-2,-3,1,1,2,-2
278933420502,0,-2,-1,-3,-4,-3,-2,-1
278933422134,-1,-3,-2,-3,-2,-1,-2,-1
278933422134,1,0,1,-1,0,-1,-1,-1
278933448984,-2,1,-1,-1,-1,0,1,1
278933448984,-2,-2,-3,-1,0,0,0,-2
278933450511,1,-1,-2,-1,1,-1,0,-1
278933450511,-2,-2,-1,1,-1,-3,-4,-3
278933470756,1,0,-1,-1,0,1,-1,0
278933470756,-1,-2,-2,0,1,2,0,1
278933487317,-1,-1,0,-3,-1,-2,1,0
278933487317,-1,-3,-1,0,0,-2,-1,-3
278933487998,2,-3,-1,0,0,-1,-1,-3
278933487998,-1,-2,-2,0,0,-1,1,-3
278933501572,-2,-1,-2,0,-2,0,-1,1
278933501572,0,1,-2,-1,-2,-3,-3,-3
278933502417,-1,1,-1,-2,-1,-3,-1,-1
278933502417,-4,-2,-2,0,-1,0,-6,-7
278933503919,-1,0,-4,-1,-4,-1,2,2
278933503919,1,1,-5,-1,-2,0,0,5
278933515654,-2,-2,-6,-3,-2,-2,-1,0
278933515654,0,-2,-5,-2,-3,1,-3,-1
278933539101,-1,0,-4,-3,2,4,-1,-3
278933539101,-3,-2,-3,-2,-2,-2,-3,-3
278933539878,0,-3,-2,-1,-1,-3,-1,2
278933539878,0,0,-2,-1,1,-1,3,1
278933541482,-1,-2,-2,0,-2,-2,0,-1
278933541482,0,-2,-3,-2,-1,-1,2,-3
278933553353,0,-1,1,0,0,0,-3,2
278933553353,-2,0,2,0,-1,-2,-1,-3
278933567214,0,0,7,-1,-2,1,-3,1
278933567214,-1,-1,6,-1,-1,1,-1,-3
278933591675,0,-1,5,-1,-1,-2,0,-3
278933591675,0,0,4,-1,-1,-3,-1,1
278933593154,1,1,3,0,2,-2,0,-4
278933593154,-1,-2,2,0,1,1,0,0
278933597453,-2,-1,2,-2,-2,-3,-2,0
278933597453,-1,0,1,-1,0,2,1,2
278933606146,-3,-1,2,-2,-1,-1,0,-1
278933606146,0,-1,0,-1,0,0,0,-2
278933620918,-2,-3,-2,-2,-3,2,0,-1
278933620918,1,-1,0,-3,-1,-3,-1,-2
278933622520,-1,-2,-3,0,0,-2,1,-1
278933622520,0,0,-1,-1,-2,-4,-1,-2
278933635365,-1,0,-1,0,0,-1,0,-2
278933635365,0,-1,-3,-1,-2,-2,-1,2
278933659734,-1,0,-1,0,-2,-4,-2,-7
278933659734,-1,0,1,0,-3,0,-2,-2
278933660601,-1,-2,-1,0,0,0,1,-1
278933660601,-1,-1,-2,-2,0,0,-2,0
278933662112,-1,0,-2,-1,0,-1,-2,4
278933662112,-2,0,-2,-2,-1,-2,0,-1
278933672571,-2,-1,-3,-3,-1,-2,-3,-2
278933672571,0,-1,0,-2,-1,-1,-1,-2
278933696085,-1,-3,-3,0,-1,-2,-2,1
278933696085,-1,0,-2,1,0,2,3,8
278933696702,0,0,2,1,-2,0,-2,-2
278933696702,-2,0,-1,1,-2,-2,-4,-7
278933726680,-2,-1,-4,0,-1,0,-1,-3
278933726680,-1,-1,-3,-2,-2,0,-1,-6
278933727368,-2,0,-2,-1,-1,1,0,2
278933727368,-1,1,-1,0,-1,0,-1,0
278933729000,0,-2,0,-2,-2,0,-3,-1
278933729000,-2,-2,-2,-1,-1,-3,-2,-3
278933748553,-2,-2,0,1,2,1,0,0
278933748553,-1,0,-1,-1,0,-1,-5,-5
278933749998,0,-1,-3,-3,-1,-1,-1,1
278933749998,-1,-1,-2,-1,-1,-3,-3,1
278933755793,-1,0,-1,1,0,0,-3,0
278933755793,-1,-3,-1,-2,-2,1,4,1
278933763470,0,-1,1,1,1,0,3,7
278933763470,-1,0,0,-1,-2,1,-2,-2
278933778929,-1,-2,-2,-1,-1,-3,-2,-3
278933778929,-2,0,-1,-2,0,-2,2,0
278933780520,1,-1,0,-3,-1,0,-2,-1
278933780520,1,-2,-1,-1,-1,-1,-3,-5
278933792024,-1,1,-2,-2,-4,-2,-3,-1
278933792024,-1,0,-2,0,-1,1,0,0
278933817414,-1,0,-1,-2,-1,2,-1,0
278933817414,-1,-2,-1,-1,1,0,-2,-1
278933818352,0,0,-1,0,-2,-2,-2,-3
278933818352,-1,-2,-3,-1,-2,-3,-3,-1
278933829648,-1,0,0,-2,-2,-2,-2,2
278933829648,-1,0,1,-3,0,0,0,-5
278933845940,-1,-2,-2,-1,1,-3,2,0
278933845940,-2,-2,1,1,-2,-2,0,2
278933847427,-1,0,1,1,-1,-3,-3,-5
278933847427,-1,1,0,1,1,0,1,-4
278933868577,-1,0,1,1,1,0,4,12
278933868577,-1,0,-3,0,0,0,-2,-1
278933870011,-1,-1,-2,-1,-2,0,-1,-4
278933870011,-2,0,0,1,-2,-1,-3,0
278933883354,0,-3,-1,-1,-1,-1,-1,-4
278933883354,0,0,2,-2,-1,-1,-1,-1
278933884993,-2,-1,0,-2,-2,-3,0,2
278933884993,0,-1,0,-1,0,2,0,-2
278933898286,0,-2,-1,-1,-1,-1,0,-2
278933898286,0,-1,-3,0,0,0,-1,0
278933899934,-1,-2,-1,1,0,0,0,-4
278933899934,-2,-1,-1,-2,-5,-3,-1,1
278933911947,0,-1,-1,-1,-2,-3,-2,-1
278933911947,-1,1,1,-2,1,0,-1,0
278933936661,1,0,-1,-1,-1,-3,-1,0
278933936661,1,-1,-2,-2,-2,-3,-1,0
278933937348,-2,0,-1,-1,-2,1,-3,-1
278933937348,-2,-1,1,-1,-1,0,1,-2
278933949572,0,1,-3,-2,0,-3,0,-2
278933949572,-2,-3,-2,-1,-3,-3,-2,0
278933965876,0,-1,-2,-3,-1,-2,0,-3
278933965876,-1,-1,-1,0,1,2,0,0
278933967482,-1,-1,-1,-1,0,1,0,0
278933967482,-2,-1,0,-1,-1,-1,0,1
278933988697,0,-2,-2,0,-1,-2,-2,-3
278933988697,0,-3,-1,0,-1,-2,-1,0
278934005528,1,-1,-2,0,1,-1,-1,-3
278934005528,-3,-2,0,-1,1,2,-1,0
278934006398,-1,-1,1,-1,0,0,0,-2
278934006398,-2,0,-1,-1,-2,0,0,-1
278934026603,0,-3,-2,-2,0,0,-1,0
278934026603,0,-2,-3,-3,2,-1,0,0
278934027285,-1,1,-1,-1,-1,-1,-2,-1
278934027285,0,0,-2,-1,0,-3,-2,1
278934028920,0,1,1,0,0,-1,0,-1
278934028920,0,1,-1,-1,0,-1,-2,-2
278934031976,-2,-1,0,-1,-2,2,-3,-1
278934031976,-1,-2,-1,-1,-2,-1,-1,-1
278934055805,-3,-1,-2,-2,-4,-1,-2,-1
278934055805,0,-1,-2,-1,-3,-3,0,0
278934056580,0,-1,-1,1,2,1,1,-2
278934056580,-2,-1,-3,-1,0,-2,-2,1
278934069464,-2,0,-1,0,-1,2,0,-2
278934069464,1,0,0,-3,-4,-2,0,-1
278934085743,0,0,1,-1,0,-2,0,-3
278934085743,0,-3,0,0,1,-1,-1,-2
278934094066,-2,-2,-1,-1,-1,-2,-2,-1
278934094066,-1,0,-1,0,-1,0,0,0
278934094889,0,-1,-3,-2,-1,-3,-2,-1
278934094889,-1,-1,-3,-1,0,0,1,-3
278934108436,0,0,-2,-2,0,2,-4,-1
278934108436,-1,-1,1,0,-1,-1,0,-1
278934123296,0,-1,0,0,-3,-1,-1,0
278934123296,-1,1,0,-2,-4,0,1,0
278934124914,0,-3,0,1,-1,-2,1,-2
278934124914,0,0,-1,0,-1,0,-2,0
278934162618,-1,-1,-2,-1,-2,-2,-2,0
278934162618,-1,-2,0,-1,0,3,1,-2
278934164243,-2,-2,-1,-2,-3,-2,0,1
278934164243,-1,-3,0,-3,1,0,-2,0
278934165056,1,-1,0,-2,-1,-3,-2,0
278934165056,1,-1,0,-1,-3,-2,-3,2
278934177942,-1,0,-1,0,-3,0,0,-1
278934177942,-1,0,-1,-1,0,-1,0,-3
278934178723,-2,-1,0,-1,0,1,0,-1
278934178723,-2,-1,-2,-1,-1,-3,-3,-2
278934189476,1,-1,0,0,-2,0,0,1
278934189476,-1,-1,-2,-2,0,0,-1,-1
278934197690,-1,1,0,-1,-1,0,1,0
278934197690,-1,-1,-1,-1,-1,-4,-2,1
278934211995,0,-1,-1,-2,1,-1,-1,0
278934211995,-2,0,1,1,-1,-2,-1,-1
278934227415,0,0,-2,-2,-1,-2,0,-1
278934227415,-1,-1,-2,-2,1,-2,0,-1
278934252172,-1,0,-1,-1,-2,-1,-1,-1
278934252172,1,-1,-2,0,-2,-4,-3,-2
278934252926,0,0,0,-1,0,-1,-2,1
278934252926,1,-1,0,0,0,2,0,-1
278934254544,-1,1,-1,0,-2,-4,-2,-1
278934254544,0,-2,0,0,0,-1,-2,-2
278934265847,-2,-2,-1,0,-3,2,-2,-3
278934265847,0,-1,-1,0,-1,2,1,-1
278934267447,-2,-1,0,-2,-1,3,0,0
278934267447,-2,-1,0,0,0,-1,-1,0
278934281305,-1,-1,-2,0,1,-1,-1,-2
278934281305,-1,-1,1,-1,1,-1,-2,-1
278934282925,0,-1,-1,-1,-1,0,-1,-2
278934282925,0,0,-1,-2,-3,-1,0,0
278934303947,-1,-1,-1,-1,0,-1,0,-2
278934303947,-1,0,-2,-2,-3,0,0,-1
278934305575,-1,-2,-3,-1,-1,-2,0,-2
278934305575,0,-2,0,-1,0,1,1,-2
278934318077,0,-2,-1,0,0,-2,-4,-1
278934318077,-2,-2,-1,-1,-1,-5,0,0
278934331916,-2,1,1,-1,1,-1,-2,-2
278934331916,-2,0,-1,-1,-2,2,0,0
278934349698,1,-1,-1,0,0,2,0,-1
278934349698,-2,0,1,0,-2,-2,-2,0
278934351287,0,-3,0,-2,-1,-1,-3,0
278934351287,-2,-1,-2,-2,-1,-3,-1,-2
278934370777,1,-3,-2,0,-2,-3,0,-1
278934370777,1,0,-1,1,0,2,0,1
278934372357,-1,-1,-3,-2,-1,-2,0,-1
278934372357,-2,-1,0,0,1,1,-1,0
278934386500,-1,0,-1,-2,-1,-1,-1,-1
278934386500,0,0,-1,0,-1,-2,-2,-1
278934388077,-1,0,-1,1,-2,-1,-3,-1
278934388077,-1,-1,-1,0,0,1,-2,-1
278934401325,-2,-1,1,-1,1,1,-1,-2
278934401325,0,0,0,-3,2,1,0,-1
278934402924,1,-1,0,-2,-2,-5,-2,-3
278934402924,-1,0,0,0,-1,-5,1,-2
278934438764,-2,-2,-1,-1,-1,0,0,0
278934438764,-2,-1,-2,0,0,0,0,0
278934440310,-1,0,0,-1,0,-2,-2,-1
278934440310,1,-1,-1,-1,1,2,1,-1
